
Integration time [ms]:   0.300
Averaging Nr. [scans]: 1
Smoothing Nr. [pixels]: 1
Data measured with spectrometer [name]: 1906252U1
Wave   ;Sample   ;Dark     ;Reference;Absorbance
[nm]   ;[counts] ;[counts] ;[counts] ;[A.U]

 161.30;  302.159;  271.207;  271.637; 0.00000
 161.90;  274.543;  265.524;  261.712; 0.00000
 162.51;  272.588;  259.038;  260.433;-0.98759
 163.11;  277.328;  265.693;  251.834; 0.00000
 163.71;  270.961;  276.696;  266.803; 0.00000
 164.31;  273.638;  294.270;  273.488; 0.00000
 164.91;  273.898;  288.393;  287.410; 0.00000
 165.52;  276.091;  277.299;  279.261; 5.00000
 166.12;  257.226;  271.979;  273.718; 5.00000
 166.72;  266.599;  272.971;  259.755; 0.00000
 167.32;  272.215;  271.656;  271.040; 0.00000
 167.93;  279.035;  261.266;  267.518;-0.45364
 168.53;  266.808;  254.112;  260.296;-0.31245
 169.13;  272.435;  264.427;  257.261; 0.00000
 169.73;  268.526;  271.677;  266.351; 0.00000
 170.33;  301.355;  291.614;  320.561; 0.47298
 170.94;  319.450;  317.756;  347.746; 1.24802
 171.54;  351.550;  335.278;  387.239; 0.50423
 172.14;  359.511;  338.926;  375.538; 0.25008
 172.74;  336.494;  324.358;  373.181; 0.60454
 173.34;  333.211;  319.589;  355.569; 0.42181
 173.95;  322.567;  309.596;  343.923; 0.42265
 174.55;  342.206;  318.289;  355.228; 0.18878
 175.15;  350.466;  320.689;  367.155; 0.19326
 175.75;  358.511;  322.370;  380.195; 0.20412
 176.35;  361.674;  332.415;  382.036; 0.22940
 176.95;  344.200;  327.740;  392.907; 0.59760
 177.56;  336.313;  327.608;  398.355; 0.90997
 178.16;  332.262;  316.738;  399.298; 0.72576
 178.76;  343.793;  316.306;  398.487; 0.47564
 179.36;  360.658;  310.874;  401.343; 0.25941
 179.96;  346.132;  304.800;  395.813; 0.34281
 180.56;  349.952;  308.938;  392.969; 0.31151
 181.17;  328.754;  318.009;  403.448; 0.90046
 181.77;  346.816;  318.897;  417.181; 0.54658
 182.37;  339.415;  306.653;  404.111; 0.47345
 182.97;  365.093;  319.309;  413.789; 0.31463
 183.57;  380.251;  323.525;  427.944; 0.26500
 184.17;  420.415;  336.736;  473.104; 0.21210
 184.78;  437.567;  316.624;  484.587; 0.14263
 185.38;  446.144;  315.012;  504.833; 0.16064
 185.98;  446.940;  315.783;  504.638; 0.15834
 186.58;  451.081;  316.598;  510.449; 0.15880
 187.18;  454.307;  313.002;  491.678; 0.10191
 187.78;  466.364;  324.256;  526.070; 0.15233
 188.38;  466.787;  331.840;  541.159; 0.19065
 188.98;  477.827;  337.804;  574.199; 0.22744
 189.59;  478.166;  332.575;  567.529; 0.20785
 190.19;  494.025;  326.870;  580.708; 0.18144
 190.79;  502.251;  326.914;  573.939; 0.14887
 191.39;  491.590;  317.159;  564.285; 0.15130
 191.99;  491.341;  322.498;  545.363; 0.12056
 192.59;  485.245;  317.307;  539.929; 0.12242
 193.19;  488.352;  313.765;  525.712; 0.08421
 193.79;  475.917;  325.164;  530.280; 0.13373
 194.39;  465.641;  328.250;  517.658; 0.13944
 195.00;  454.466;  327.216;  511.139; 0.15998
 195.60;  435.720;  305.566;  480.732; 0.12899
 196.20;  416.788;  304.088;  469.473; 0.16657
 196.80;  395.974;  305.278;  453.989; 0.21475
 197.40;  393.833;  313.686;  455.186; 0.24687
 198.00;  388.765;  320.693;  452.457; 0.28683
 198.60;  387.257;  317.270;  442.943; 0.25423
 199.20;  371.166;  312.435;  427.513; 0.29212
 199.80;  371.082;  303.957;  416.753; 0.22541
 200.40;  364.861;  299.492;  396.868; 0.17308
 201.00;  352.754;  293.841;  371.434; 0.11961
 201.60;  320.053;  292.845;  340.403; 0.24252
 202.21;  309.223;  298.995;  352.240; 0.71650
 202.81;  326.873;  303.760;  367.883; 0.44317
 203.41;  345.585;  301.801;  377.921; 0.24019
 204.01;  346.940;  296.447;  373.611; 0.18418
 204.61;  335.466;  287.965;  374.799; 0.26199
 205.21;  340.003;  280.528;  391.328; 0.27021
 205.81;  339.579;  276.000;  394.567; 0.27065
 206.41;  336.342;  281.190;  389.667; 0.29377
 207.01;  331.184;  291.585;  373.516; 0.31577
 207.61;  325.217;  290.832;  349.221; 0.22996
 208.21;  316.087;  294.007;  340.088; 0.31951
 208.81;  307.381;  285.376;  350.048; 0.46820
 209.41;  305.946;  292.971;  355.294; 0.68153
 210.01;  297.143;  286.985;  361.835; 0.86735
 210.61;  304.968;  290.534;  351.990; 0.62916
 211.21;  296.539;  293.399;  356.219; 1.30113
 211.81;  318.590;  300.157;  352.258; 0.45124
 212.41;  308.844;  301.896;  344.513; 0.78770
 213.01;  333.613;  296.332;  351.625; 0.17119
 213.61;  318.991;  285.263;  357.339; 0.32979
 214.21;  324.070;  282.939;  368.411; 0.31765
 214.81;  303.387;  278.704;  361.387; 0.52503
 215.41;  309.647;  282.466;  362.645; 0.46980
 216.01;  303.856;  278.247;  362.189; 0.51558
 216.61;  312.455;  287.920;  357.792; 0.45453
 217.21;  319.714;  290.599;  357.391; 0.36060
 217.81;  328.794;  297.221;  367.800; 0.34937
 218.41;  340.743;  301.628;  379.081; 0.29670
 219.01;  324.827;  307.801;  388.505; 0.67578
 219.61;  324.895;  301.739;  384.906; 0.55528
 220.21;  304.172;  297.568;  378.507; 1.08834
 220.81;  323.715;  283.737;  372.713; 0.34746
 221.41;  340.025;  284.091;  376.024; 0.21579
 222.01;  343.720;  280.426;  372.049; 0.16064
 222.61;  339.449;  298.953;  367.451; 0.22827
 223.21;  319.087;  301.813;  357.103; 0.50526
 223.81;  332.997;  301.952;  360.676; 0.27682
 224.41;  325.291;  281.875;  343.618; 0.15294
 225.01;  315.263;  269.317;  340.250; 0.18860
 225.61;  298.370;  274.108;  341.033; 0.44066
 226.21;  296.246;  273.112;  349.918; 0.52115
 226.81;  300.500;  286.490;  349.175; 0.65074
 227.41;  312.940;  284.059;  344.282; 0.31914
 228.01;  313.240;  302.172;  351.241; 0.64676
 228.61;  321.150;  306.727;  360.474; 0.57129
 229.21;  308.042;  303.825;  362.700; 1.14490
 229.81;  312.794;  308.998;  372.791; 1.22548
 230.41;  316.065;  299.055;  383.396; 0.69534
 231.01;  333.274;  300.808;  405.942; 0.51031
 231.61;  333.426;  287.307;  401.095; 0.39222
 232.21;  326.161;  300.328;  383.489; 0.50774
 232.81;  297.274;  296.307;  370.928; 1.88734
 233.41;  287.009;  302.578;  372.995; 5.00000
 234.00;  303.257;  298.240;  379.918; 1.21163
 234.60;  328.291;  290.487;  363.623; 0.28659
 235.20;  343.929;  295.152;  359.264; 0.11872
 235.80;  329.099;  295.330;  365.432; 0.31721
 236.40;  321.048;  302.765;  379.044; 0.62035
 237.00;  310.155;  303.584;  384.824; 1.09209
 237.60;  315.308;  294.000;  377.651; 0.59394
 238.20;  320.873;  295.121;  389.214; 0.56275
 238.80;  316.003;  274.112;  389.668; 0.44067
 239.40;  322.082;  279.177;  403.402; 0.46170
 240.00;  324.319;  284.599;  402.640; 0.47302
 240.59;  333.980;  298.133;  401.312; 0.45913
 241.19;  333.409;  297.989;  399.745; 0.45831
 241.79;  328.048;  288.710;  384.715; 0.38748
 242.39;  326.579;  292.222;  383.909; 0.42630
 242.99;  329.121;  286.642;  375.121; 0.31866
 243.59;  310.754;  289.230;  388.763; 0.66504
 244.19;  310.890;  286.160;  385.560; 0.60417
 244.79;  312.992;  287.511;  384.652; 0.58119
 245.39;  333.562;  287.293;  395.554; 0.36918
 245.98;  339.794;  273.053;  391.453; 0.24896
 246.58;  323.624;  274.487;  389.290; 0.36854
 247.18;  328.359;  285.342;  384.364; 0.36209
 247.78;  329.093;  295.696;  398.758; 0.48938
 248.38;  347.167;  288.656;  421.162; 0.35500
 248.98;  344.313;  277.356;  419.988; 0.32842
 249.58;  337.997;  265.673;  430.671; 0.35820
 250.17;  336.178;  275.285;  426.842; 0.39601
 250.77;  329.969;  283.143;  431.967; 0.50219
 251.37;  322.748;  286.929;  425.089; 0.58626
 251.97;  318.138;  270.293;  429.805; 0.52296
 252.57;  323.223;  265.298;  436.882; 0.47161
 253.17;  341.172;  272.929;  449.172; 0.41205
 253.77;  332.619;  284.186;  466.282; 0.57516
 254.36;  342.455;  295.474;  468.774; 0.56688
 254.96;  326.913;  295.333;  480.567; 0.76831
 255.56;  326.980;  288.604;  484.301; 0.70752
 256.16;  318.862;  278.462;  506.509; 0.75165
 256.76;  316.127;  277.524;  496.109; 0.75300
 257.36;  324.625;  276.735;  508.603; 0.68500
 257.95;  320.071;  264.992;  503.713; 0.63691
 258.55;  322.771;  264.239;  518.084; 0.63717
 259.15;  314.811;  260.564;  510.454; 0.66337
 259.75;  316.020;  269.345;  523.998; 0.73686
 260.35;  317.652;  267.461;  538.318; 0.73211
 260.94;  318.415;  268.819;  539.764; 0.73743
 261.54;  330.093;  275.530;  547.771; 0.69806
 262.14;  339.760;  279.723;  553.422; 0.65886
 262.74;  341.184;  296.084;  592.169; 0.81724
 263.34;  341.946;  285.302;  604.600; 0.75104
 263.93;  330.884;  271.414;  619.201; 0.76701
 264.53;  343.800;  269.158;  628.783; 0.68287
 265.13;  341.573;  270.950;  628.566; 0.70446
 265.73;  345.478;  275.426;  648.466; 0.72634
 266.33;  340.749;  278.566;  678.397; 0.80821
 266.92;  331.031;  275.029;  689.673; 0.86947
 267.52;  346.416;  279.954;  705.726; 0.80661
 268.12;  344.958;  273.264;  717.281; 0.79192
 268.72;  360.178;  281.951;  749.175; 0.77617
 269.31;  368.506;  293.596;  782.505; 0.81469
 269.91;  367.359;  296.813;  783.686; 0.83894
 270.51;  362.432;  298.884;  823.747; 0.91694
 271.11;  342.709;  296.018;  844.685; 1.07007
 271.70;  347.704;  281.274;  877.686; 0.95318
 272.30;  345.596;  270.568;  887.924; 0.91531
 272.90;  358.421;  264.784;  909.412; 0.83786
 273.50;  374.540;  274.785;  916.521; 0.80842
 274.09;  375.884;  285.359;  947.539; 0.86420
 274.69;  369.359;  293.425;  961.690; 0.94451
 275.29;  367.381;  297.126; 1011.041; 1.00697
 275.89;  362.190;  301.162; 1057.168; 1.09300
 276.48;  381.399;  306.441; 1108.365; 1.02932
 277.08;  382.704;  303.217; 1149.330; 1.02713
 277.68;  411.631;  300.562; 1156.928; 0.88707
 278.28;  416.438;  297.934; 1188.748; 0.87605
 278.87;  431.901;  305.120; 1219.213; 0.85794
 279.47;  449.715;  316.402; 1279.019; 0.85858
 280.07;  445.568;  311.564; 1306.537; 0.87069
 280.66;  437.500;  305.599; 1329.806; 0.89014
 281.26;  431.303;  299.502; 1356.605; 0.90420
 281.86;  450.162;  299.353; 1408.460; 0.86655
 282.46;  470.698;  289.111; 1464.667; 0.81116
 283.05;  473.879;  270.001; 1525.842; 0.78956
 283.65;  480.953;  269.267; 1577.248; 0.79091
 284.25;  490.720;  276.537; 1628.707; 0.80024
 284.84;  513.155;  297.639; 1660.819; 0.80107
 285.44;  536.031;  304.585; 1722.349; 0.78715
 286.04;  548.319;  306.626; 1767.304; 0.78129
 286.63;  566.223;  299.604; 1827.551; 0.75822
 287.23;  583.257;  285.934; 1878.582; 0.72889
 287.83;  595.986;  285.987; 1956.635; 0.73152
 288.42;  608.150;  282.947; 2012.456; 0.72577
 289.02;  622.709;  281.018; 2081.351; 0.72172
 289.62;  633.381;  274.153; 2105.373; 0.70737
 290.21;  654.890;  278.965; 2173.882; 0.70249
 290.81;  665.517;  296.139; 2171.832; 0.70569
 291.41;  691.963;  301.675; 2217.279; 0.69092
 292.00;  711.941;  287.695; 2273.257; 0.67027
 292.60;  742.930;  266.816; 2355.570; 0.64218
 293.20;  759.975;  269.053; 2441.953; 0.64603
 293.79;  780.884;  275.331; 2498.541; 0.64321
 294.39;  815.133;  284.326; 2544.463; 0.62920
 294.99;  864.771;  280.435; 2588.095; 0.59651
 295.58;  886.314;  284.687; 2619.961; 0.58901
 296.18;  902.924;  271.100; 2672.236; 0.57982
 296.78;  922.879;  267.474; 2741.524; 0.57690
 297.37;  956.596;  256.039; 2819.912; 0.56345
 297.97;  967.127;  255.858; 2927.442; 0.57473
 298.57;  997.574;  262.727; 2989.557; 0.56946
 299.16; 1029.460;  278.359; 3083.789; 0.57230
 299.76; 1070.037;  281.775; 3176.366; 0.56492
 300.35; 1107.043;  281.214; 3269.362; 0.55851
 300.95; 1144.138;  278.404; 3324.462; 0.54635
 301.55; 1189.844;  287.229; 3346.846; 0.53016
 302.14; 1228.025;  278.314; 3431.366; 0.52114
 302.74; 1306.522;  277.164; 3537.862; 0.50074
 303.33; 1331.573;  277.506; 3665.575; 0.50708
 303.93; 1365.279;  284.053; 3763.621; 0.50761
 304.53; 1373.731;  290.889; 3809.743; 0.51184
 305.12; 1417.398;  285.666; 3889.067; 0.50297
 305.72; 1464.415;  304.345; 3962.749; 0.49881
 306.31; 1486.822;  292.556; 4062.826; 0.49927
 306.91; 1546.568;  290.122; 4183.574; 0.49119
 307.51; 1564.065;  280.000; 4278.734; 0.49334
 308.10; 1635.381;  295.710; 4394.048; 0.48561
 308.70; 1664.070;  291.190; 4468.751; 0.48329
 309.29; 1712.465;  287.634; 4547.826; 0.47567
 309.89; 1757.324;  264.902; 4638.675; 0.46696
 310.48; 1813.421;  273.673; 4739.754; 0.46248
 311.08; 1882.449;  268.620; 4876.118; 0.45561
 311.68; 1919.370;  273.221; 4959.384; 0.45435
 312.27; 1978.601;  278.703; 5074.278; 0.45042
 312.87; 2018.511;  271.869; 5225.848; 0.45275
 313.46; 2061.342;  276.691; 5385.013; 0.45673
 314.06; 2146.551;  276.193; 5529.885; 0.44854
 314.65; 2204.562;  282.238; 5632.559; 0.44455
 315.25; 2279.929;  283.262; 5774.255; 0.43935
 315.85; 2330.551;  277.637; 5914.876; 0.43870
 316.44; 2402.280;  287.913; 6071.938; 0.43705
 317.04; 2445.331;  295.255; 6216.984; 0.43999
 317.63; 2531.681;  310.823; 6400.341; 0.43806
 318.23; 2609.957;  298.737; 6546.296; 0.43187
 318.82; 2666.884;  293.221; 6674.883; 0.42951
 319.42; 2664.884;  273.276; 6781.545; 0.43478
 320.01; 2712.308;  280.055; 6929.646; 0.43679
 320.61; 2812.992;  290.511; 7164.652; 0.43539
 321.20; 2900.297;  285.758; 7272.939; 0.42691
 321.80; 2988.065;  292.860; 7497.718; 0.42703
 322.39; 3049.867;  275.154; 7636.540; 0.42374
 322.99; 3136.878;  275.755; 7857.556; 0.42324
 323.58; 3224.534;  286.597; 7977.531; 0.41794
 324.18; 3295.687;  287.901; 8124.673; 0.41589
 324.77; 3370.020;  292.485; 8318.013; 0.41627
 325.37; 3436.172;  278.984; 8442.167; 0.41256
 325.96; 3501.969;  276.253; 8588.958; 0.41112
 326.56; 3550.105;  298.768; 8771.095; 0.41594
 327.15; 3582.116;  300.036; 8947.778; 0.42075
 327.75; 3694.206;  300.925; 9129.536; 0.41527
 328.34; 3803.184;  272.723; 9291.838; 0.40733
 328.94; 3908.924;  266.072; 9447.905; 0.40149
 329.53; 3969.896;  277.765; 9658.876; 0.40498
 330.13; 4053.139;  293.098; 9872.460; 0.40614
 330.72; 4097.568;  297.428;10112.576; 0.41210
 331.32; 4181.731;  296.807;10347.750; 0.41282
 331.91; 4234.376;  286.021;10578.045; 0.41608
 332.51; 4369.777;  290.846;10832.428; 0.41236
 333.10; 4454.370;  280.941;11112.686; 0.41421
 333.69; 4543.551;  268.720;11343.870; 0.41343
 334.29; 4526.314;  259.020;11372.294; 0.41569
 334.88; 4523.246;  263.526;11404.218; 0.41753
 335.48; 4518.534;  274.151;11347.513; 0.41646
 336.07; 4609.732;  277.361;11521.065; 0.41418
 336.67; 4635.776;  271.793;11561.792; 0.41281
 337.26; 4711.726;  270.478;11724.744; 0.41146
 337.86; 4686.404;  274.661;11795.073; 0.41686
 338.45; 4806.551;  285.081;11996.201; 0.41332
 339.04; 4841.399;  280.248;12122.714; 0.41437
 339.64; 4957.189;  279.247;12324.855; 0.41077
 340.23; 4966.900;  276.541;12444.594; 0.41401
 340.83; 5051.974;  283.446;12579.002; 0.41136
 341.42; 5076.421;  284.034;12728.085; 0.41441
 342.02; 5113.393;  280.810;12860.717; 0.41550
 342.61; 5122.488;  285.029;12994.842; 0.41952
 343.20; 5151.330;  280.703;13173.363; 0.42276
 343.80; 5210.494;  275.024;13326.514; 0.42233
 344.39; 5329.099;  277.525;13574.777; 0.42034
 344.99; 5456.906;  284.701;13698.586; 0.41388
 345.58; 5536.986;  281.629;13941.331; 0.41484
 346.17; 5582.601;  272.425;14086.941; 0.41523
 346.77; 5650.167;  263.601;14425.499; 0.41981
 347.36; 5752.410;  267.766;14640.403; 0.41839
 347.96; 5860.749;  271.456;14918.073; 0.41838
 348.55; 5941.749;  272.039;15018.413; 0.41512
 349.14; 5998.929;  269.152;15148.264; 0.41444
 349.74; 6026.641;  282.193;15379.635; 0.41966
 350.33; 6146.624;  292.264;15619.281; 0.41798
 350.92; 6269.426;  292.029;15990.758; 0.41935
 351.52; 6330.714;  276.988;16197.719; 0.41994
 352.11; 6355.364;  277.642;16449.038; 0.42501
 352.70; 6430.127;  293.221;16652.467; 0.42581
 353.30; 6545.353;  299.069;16923.354; 0.42512
 353.89; 6624.822;  289.556;17199.826; 0.42639
 354.49; 6684.449;  295.537;17471.125; 0.42948
 355.08; 6749.234;  303.789;17648.240; 0.42991
 355.67; 6852.206;  306.509;17850.877; 0.42818
 356.27; 6970.082;  292.678;18013.082; 0.42387
 356.86; 7118.048;  288.376;18230.048; 0.41946
 357.45; 7219.330;  297.756;18507.331; 0.42009
 358.05; 7330.952;  297.214;18684.613; 0.41733
 358.64; 7382.636;  292.504;18894.298; 0.41890
 359.23; 7455.161;  289.300;19081.825; 0.41872
 359.83; 7489.054;  289.121;19433.380; 0.42471
 360.42; 7565.602;  293.174;19722.600; 0.42678
 361.01; 7655.161;  287.355;19981.487; 0.42700
 361.61; 7688.879;  287.502;20183.522; 0.42945
 362.20; 7792.077;  294.987;20496.718; 0.43050
 362.79; 7811.314;  302.910;20634.303; 0.43262
 363.38; 7896.850;  301.613;20815.514; 0.43151
 363.98; 7960.393;  289.171;20943.715; 0.43015
 364.57; 8008.828;  277.744;21176.149; 0.43187
 365.16; 8162.500;  288.573;21351.502; 0.42733
 365.76; 8182.946;  293.720;21537.287; 0.43019
 366.35; 8301.212;  294.920;21731.542; 0.42772
 366.94; 8299.805;  286.459;21913.791; 0.43119
 367.53; 8341.811;  286.426;22067.466; 0.43199
 368.13; 8435.494;  291.994;22246.489; 0.43071
 368.72; 8481.630;  285.482;22413.295; 0.43133
 369.31; 8608.364;  292.281;22597.374; 0.42849
 369.91; 8635.861;  283.382;22746.877; 0.42966
 370.50; 8739.393;  291.699;22820.059; 0.42599
 371.09; 8777.591;  278.017;22946.909; 0.42603
 371.68; 8819.342;  286.967;23106.324; 0.42723
 372.28; 8848.596;  294.984;23340.584; 0.43044
 372.87; 8876.178;  297.367;23443.502; 0.43105
 373.46; 9008.274;  297.723;23614.255; 0.42762
 374.05; 9061.184;  287.889;23758.158; 0.42736
 374.65; 9204.523;  290.440;23950.173; 0.42393
 375.24; 9167.365;  272.918;24146.349; 0.42880
 375.83; 9251.381;  275.848;24331.370; 0.42815
 376.42; 9278.229;  273.516;24515.563; 0.43010
 377.02; 9394.167;  293.907;24527.502; 0.42536
 377.61; 9449.669;  288.112;24762.668; 0.42675
 378.20; 9541.127;  297.747;24944.118; 0.42592
 378.79; 9569.229;  297.015;25086.217; 0.42708
 379.38; 9642.461;  282.191;25204.109; 0.42529
 379.98; 9736.161;  267.243;25344.469; 0.42298
 380.57; 9868.093;  272.112;25606.751; 0.42163
 381.16; 9963.127;  291.609;25727.129; 0.41995
 381.75;10013.483;  289.589;25767.151; 0.41832
 382.35;10074.935;  283.703;25937.612; 0.41832
 382.94;10167.358;  271.231;26182.039; 0.41802
 383.53;10306.415;  279.541;26558.760; 0.41845
 384.12;10397.291;  269.432;26865.627; 0.41930
 384.71;10474.020;  284.069;27028.687; 0.41906
 385.31;10569.878;  287.699;27353.893; 0.42034
 385.90;10719.420;  299.731;27598.110; 0.41828
 386.49;10915.641;  283.306;27919.987; 0.41486
 387.08;11006.596;  296.763;28085.602; 0.41409
 387.67;11166.590;  302.047;28384.267; 0.41242
 388.26;11296.409;  312.463;28670.094; 0.41191
 388.86;11442.092;  297.866;29041.131; 0.41149
 389.45;11527.261;  285.685;29324.329; 0.41215
 390.04;11616.436;  279.860;29566.863; 0.41219
 390.63;11763.571;  284.795;29878.048; 0.41130
 391.22;11931.953;  294.422;30097.179; 0.40840
 391.81;12115.460;  303.408;30368.117; 0.40573
 392.41;12302.531;  324.211;30517.642; 0.40152
 393.00;12465.686;  349.022;30747.606; 0.39947
 393.59;12563.469;  379.676;31111.212; 0.40180
 394.18;12713.945;  399.780;31505.223; 0.40243
 394.77;12768.742;  433.703;31930.599; 0.40713
 395.36;12943.556;  473.557;32244.356; 0.40616
 395.95;13043.923;  524.323;32561.017; 0.40806
 396.55;13243.703;  566.236;32856.406; 0.40604
 397.14;13381.439;  594.577;33298.717; 0.40784
 397.73;13547.164;  601.786;33627.642; 0.40674
 398.32;13714.800;  612.294;34204.404; 0.40888
 398.91;13981.353;  621.039;34614.988; 0.40558
 399.50;14243.478;  632.059;35200.379; 0.40477
 400.09;14531.888;  605.452;35675.306; 0.40109
 400.68;14770.897;  582.293;36366.134; 0.40175
 401.27;14977.957;  548.561;37014.694; 0.40264
 401.87;15285.717;  525.771;37604.957; 0.40005
 402.46;15576.127;  501.053;38119.893; 0.39715
 403.05;15936.241;  484.389;38675.942; 0.39299
 403.64;16185.761;  490.521;39240.769; 0.39251
 404.23;16433.428;  484.797;39841.080; 0.39229
 404.82;16705.050;  502.588;40438.695; 0.39178
 405.41;16932.186;  491.629;41140.816; 0.39314
 406.00;17160.384;  497.890;41752.976; 0.39374
 406.59;17328.267;  479.966;42383.807; 0.39570
 407.18;17593.550;  482.149;42943.385; 0.39471
 407.77;17838.539;  466.520;43500.038; 0.39396
 408.37;18123.832;  484.641;43973.019; 0.39189
 408.96;18402.685;  491.806;44465.898; 0.39008
 409.55;18672.075;  504.476;44970.283; 0.38873
 410.14;18904.273;  481.626;45459.452; 0.38765
 410.73;19226.962;  490.299;45905.805; 0.38451
 411.32;19374.567;  492.855;46441.730; 0.38623
 411.91;19613.415;  505.687;47060.216; 0.38675
 412.50;19702.850;  480.732;47624.639; 0.38962
 413.09;19982.308;  484.505;48110.411; 0.38786
 413.68;20226.501;  482.467;48573.257; 0.38663
 414.27;20375.162;  487.472;48936.919; 0.38670
 414.86;20585.224;  462.470;49236.309; 0.38450
 415.45;20634.343;  452.555;49687.411; 0.38731
 416.04;20823.015;  462.743;50083.734; 0.38688
 416.63;21040.891;  468.551;50542.275; 0.38633
 417.22;21205.304;  461.867;50754.683; 0.38463
 417.81;21449.106;  462.159;51068.477; 0.38226
 418.40;21463.310;  476.694;51393.675; 0.38492
 418.99;21565.491;  477.832;51737.830; 0.38575
 419.58;21604.734;  462.218;51969.382; 0.38671
 420.17;21741.085;  452.952;52248.392; 0.38615
 420.76;21932.204;  458.593;52499.836; 0.38444
 421.35;22032.802;  472.988;53005.769; 0.38679
 421.94;21990.870;  474.287;53203.501; 0.38928
 422.53;21995.012;  469.601;53402.299; 0.39077
 423.12;22023.215;  471.552;53493.823; 0.39098
 423.71;22157.933;  463.366;53670.857; 0.38962
 424.30;22120.950;  471.573;53819.883; 0.39168
 424.89;22047.091;  477.611;53888.037; 0.39379
 425.48;22021.430;  477.854;53974.356; 0.39501
 426.07;21972.459;  465.438;53940.695; 0.39557
 426.66;22019.951;  460.097;54040.507; 0.39536
 427.25;21945.889;  453.014;53995.096; 0.39640
 427.84;21876.516;  450.549;53912.043; 0.39710
 428.43;21775.251;  452.848;53711.442; 0.39755
 429.02;21727.364;  457.772;53797.552; 0.39929
 429.61;21648.601;  448.720;53826.107; 0.40102
 430.20;21486.946;  425.820;53758.443; 0.40351
 430.79;21350.415;  437.001;53531.580; 0.40463
 431.38;21211.387;  442.471;53315.543; 0.40582
 431.97;21079.291;  451.391;53001.434; 0.40612
 432.55;20904.201;  445.807;52690.011; 0.40717
 433.14;20836.935;  441.412;52704.411; 0.40866
 433.73;20650.597;  432.971;52655.054; 0.41212
 434.32;20510.156;  424.624;52606.263; 0.41463
 434.91;20311.964;  423.161;52233.737; 0.41581
 435.50;20275.767;  418.064;51971.869; 0.41433
 436.09;20147.880;  418.432;51687.970; 0.41474
 436.68;20030.225;  422.559;51624.303; 0.41686
 437.27;19885.722;  439.214;51661.122; 0.42061
 437.86;19641.841;  433.576;51508.561; 0.42472
 438.45;19444.604;  436.794;51330.326; 0.42773
 439.04;19220.581;  419.148;51043.637; 0.43017
 439.62;19102.259;  412.025;51000.963; 0.43244
 440.21;18966.683;  413.441;50885.373; 0.43463
 440.80;18784.181;  430.263;51024.538; 0.44037
 441.39;18692.463;  449.560;51081.161; 0.44333
 441.98;18482.604;  447.874;51020.625; 0.44781
 442.57;18316.221;  436.530;50797.219; 0.44973
 443.16;18144.261;  425.660;50702.578; 0.45294
 443.75;18112.272;  431.481;50788.909; 0.45456
 444.33;18037.747;  435.018;50969.383; 0.45801
 444.92;17927.713;  440.355;50892.685; 0.46016
 445.51;17719.368;  417.614;50850.986; 0.46463
 446.10;17593.278;  410.612;51056.876; 0.46946
 446.69;17492.290;  404.712;51275.545; 0.47379
 447.28;17513.810;  420.929;51457.726; 0.47507
 447.87;17339.471;  412.657;51329.383; 0.47829
 448.45;17205.511;  413.036;51412.748; 0.48245
 449.04;17003.081;  390.874;51445.980; 0.48761
 449.63;16953.731;  386.972;51646.289; 0.49054
 450.22;16859.245;  381.501;51835.467; 0.49452
 450.81;16769.330;  386.090;52100.884; 0.49921
 451.40;16680.912;  391.666;52058.120; 0.50131
 451.98;16577.540;  398.229;52052.065; 0.50414
 452.57;16496.613;  403.856;52211.469; 0.50776
 453.16;16339.167;  401.626;52273.023; 0.51251
 453.75;16203.523;  391.994;52359.708; 0.51676
 454.34;16096.840;  388.814;52215.013; 0.51843
 454.93;16079.201;  395.232;52494.699; 0.52138
 455.51;15883.060;  391.805;52615.216; 0.52778
 456.10;15758.298;  402.670;52907.445; 0.53393
 456.69;15613.569;  396.116;53041.712; 0.53902
 457.28;15631.394;  403.304;53288.203; 0.54069
 457.87;15499.863;  395.902;53216.666; 0.54371
 458.45;15405.575;  396.108;53304.691; 0.54716
 459.04;15327.943;  388.965;53401.373; 0.55006
 459.63;15237.723;  395.666;53676.141; 0.55507
 460.22;15132.050;  396.420;53639.128; 0.55789
 460.80;14987.734;  400.600;53692.823; 0.56269
 461.39;14909.802;  392.483;53895.895; 0.56650
 461.98;14924.373;  393.792;54364.115; 0.56987
 462.57;14976.887;  398.874;54782.941; 0.57177
 463.16;14993.899;  397.668;55197.607; 0.57454
 463.74;14995.170;  387.726;55673.212; 0.57804
 464.33;14944.396;  376.102;56213.777; 0.58352
 464.92;14952.345;  370.427;56547.398; 0.58574
 465.51;14862.995;  357.831;56911.710; 0.59094
 466.09;14924.193;  358.204;57352.888; 0.59249
 466.68;14911.425;  361.518;57898.436; 0.59709
 467.27;14962.628;  372.331;58292.638; 0.59877
 467.86;14929.724;  368.243;58560.733; 0.60166
 468.44;14890.583;  363.094;58919.922; 0.60539
 469.03;14843.148;  361.882;59322.152; 0.60975
 469.62;14886.046;  367.807;59788.037; 0.61202
 470.20;14944.691;  365.300;60231.337; 0.61344
 470.79;14966.216;  374.762;60677.863; 0.61624
 471.38;14951.855;  358.816;61146.166; 0.61967
 471.97;14926.420;  359.020;61564.389; 0.62341
 472.55;15000.714;  350.111;61933.679; 0.62361
 473.14;14971.974;  362.234;62406.602; 0.62806
 473.73;15010.590;  355.473;62971.535; 0.63070
 474.31;15010.517;  347.428;63489.444; 0.63409
 474.90;15037.991;  350.797;63899.238; 0.63617
 475.49;14995.997;  352.737;64160.914; 0.63924
 476.07;14987.065;  357.870;64473.326; 0.64174
 476.66;15026.918;  347.892;64752.829; 0.64222
 477.25;15094.105;  340.581;65000.332; 0.64174
 477.84;15057.303;  352.761;65155.193; 0.64414
 478.42;14992.060;  344.733;65155.945; 0.64589
 479.01;14985.116;  344.681;65156.001; 0.64610
 479.60;15017.631;  330.210;65156.511; 0.64481
 480.18;15029.721;  334.265;65158.257; 0.64455
 480.77;14921.620;  342.135;65159.480; 0.64795
 481.35;14872.512;  347.900;65159.373; 0.64955
 481.94;14763.659;  344.738;65159.188; 0.65274
 482.53;14819.066;  335.059;65159.923; 0.65085
 483.11;14721.190;  332.000;65160.709; 0.65373
 483.70;14733.541;  318.067;65161.719; 0.65304
 484.29;14681.490;  316.585;65163.324; 0.65459
 484.87;14624.383;  306.461;65164.542; 0.65608
 485.46;14499.445;  315.710;65164.272; 0.66011
 486.05;14310.083;  319.958;65162.920; 0.66604
 486.63;14215.750;  321.237;65162.258; 0.66901
 487.22;14231.405;  317.302;65162.909; 0.66843
 487.81;14255.541;  323.288;65164.368; 0.66783
 488.39;14193.315;  331.856;65164.474; 0.66998
 488.98;14065.236;  337.207;65163.733; 0.67414
 489.56;13876.971;  317.228;65164.794; 0.67964
 490.15;13828.558;  310.772;65166.371; 0.68104
 490.74;13663.649;  302.771;65167.454; 0.68617
 491.32;13531.649;  305.937;65168.774; 0.69058
 491.91;13365.610;  316.111;64974.057; 0.69503
 492.49;13129.197;  317.823;64712.314; 0.70125
 493.08;12978.011;  332.939;64167.133; 0.70313
 493.67;12754.096;  325.500;63724.219; 0.70766
 494.25;12719.062;  343.920;63105.848; 0.70515
 494.84;12520.638;  335.724;62474.087; 0.70754
 495.42;12401.977;  338.386;61959.759; 0.70825
 496.01;12210.203;  319.873;61399.648; 0.71070
 496.59;12068.005;  310.443;60754.114; 0.71103
 497.18;11882.039;  311.106;60078.479; 0.71310
 497.77;11696.537;  311.733;59331.632; 0.71467
 498.35;11661.373;  326.966;58841.796; 0.71287
 498.94;11613.791;  324.499;58030.218; 0.70855
 499.52;11537.096;  324.914;57567.186; 0.70803
 500.11;11369.520;  311.275;56906.600; 0.70909
 500.69;11133.164;  304.601;56449.246; 0.71474
 501.28;11039.961;  315.149;55764.708; 0.71351
 501.86;10968.046;  317.653;55155.772; 0.71172
 502.45;10977.317;  338.264;54632.693; 0.70785
 503.03;10805.945;  328.939;54106.656; 0.71037
 503.62;10693.701;  339.385;53665.090; 0.71182
 504.20;10604.250;  326.215;53123.968; 0.71071
 504.79;10603.436;  326.766;52666.148; 0.70698
 505.37;10575.820;  326.582;52358.543; 0.70558
 505.96;10554.374;  332.269;51859.105; 0.70249
 506.55;10634.442;  327.706;51491.158; 0.69584
 507.13;10690.024;  315.837;51254.709; 0.69110
 507.72;10782.380;  312.954;51138.387; 0.68616
 508.30;10825.284;  319.265;50944.634; 0.68293
 508.89;10899.132;  316.460;50626.145; 0.67706
 509.47;11056.714;  308.593;50383.056; 0.66828
 510.05;11193.533;  311.037;50305.214; 0.66219
 510.64;11461.521;  312.992;50205.541; 0.65082
 511.22;11569.798;  326.961;50242.492; 0.64736
 511.81;11711.493;  323.186;50282.527; 0.64216
 512.39;11794.244;  329.747;50266.280; 0.63906
 512.98;11943.414;  310.647;50213.110; 0.63244
 513.56;12168.934;  306.947;50200.284; 0.62389
 514.15;12386.166;  297.484;50225.841; 0.61597
 514.73;12572.663;  293.306;50310.339; 0.60994
 515.32;12785.702;  298.909;50412.714; 0.60351
 515.90;13051.126;  306.909;50529.464; 0.59559
 516.49;13349.601;  321.223;50576.262; 0.58629
 517.07;13549.816;  323.415;50501.804; 0.57908
 517.66;13663.302;  325.663;50468.951; 0.57513
 518.24;13822.460;  330.491;50581.443; 0.57107
 518.82;13991.799;  322.791;50433.118; 0.56419
 519.41;14194.262;  321.449;50483.238; 0.55821
 519.99;14482.647;  304.901;50520.942; 0.54924
 520.58;14764.890;  313.039;50964.514; 0.54467
 521.16;15146.234;  316.114;51139.212; 0.53492
 521.75;15490.849;  315.579;51354.849; 0.52677
 522.33;15798.177;  314.722;51552.832; 0.51973
 522.91;16059.810;  303.280;51724.449; 0.51368
 523.50;16303.454;  304.661;51708.091; 0.50690
 524.08;16678.556;  292.957;51816.521; 0.49754
 524.67;16970.867;  296.699;52029.160; 0.49172
 525.25;17327.347;  294.898;52244.306; 0.48430
 525.83;17631.720;  300.195;52281.679; 0.47701
 526.42;17958.031;  299.604;52255.985; 0.46869
 527.00;18190.692;  297.414;52315.968; 0.46347
 527.59;18418.122;  293.742;52194.390; 0.45691
 528.17;18698.195;  296.702;52169.461; 0.45009
 528.75;19017.517;  314.407;52237.781; 0.44345
 529.34;19320.274;  317.963;52410.206; 0.43797
 529.92;19568.433;  322.096;52599.701; 0.43397
 530.50;19717.489;  308.099;52577.086; 0.43023
 531.09;19941.992;  310.277;52580.588; 0.42530
 531.67;20180.472;  319.699;52493.409; 0.41946
 532.25;20422.354;  331.224;52474.618; 0.41419
 532.84;20610.156;  319.265;52286.406; 0.40843
 533.42;20839.207;  303.579;52069.121; 0.40153
 534.00;21017.365;  296.379;51800.283; 0.39543
 534.59;21200.105;  306.923;51692.027; 0.39083
 535.17;21267.043;  307.396;51484.292; 0.38769
 535.75;21416.111;  311.833;51399.345; 0.38394
 536.34;21674.744;  327.170;51106.314; 0.37634
 536.92;21857.444;  323.362;50970.357; 0.37143
 537.50;22026.122;  320.767;50555.361; 0.36444
 538.09;22035.704;  304.234;50224.272; 0.36119
 538.67;22168.128;  307.957;49849.711; 0.35532
 539.25;22272.320;  292.004;49517.578; 0.35016
 539.84;22379.846;  298.382;49195.084; 0.34525
 540.42;22378.857;  287.620;48747.408; 0.34116
 541.00;22451.727;  304.712;48328.615; 0.33614
 541.59;22524.919;  293.453;47996.146; 0.33157
 542.17;22631.422;  303.713;47681.974; 0.32673
 542.75;22710.208;  301.687;47449.085; 0.32304
 543.33;22803.219;  321.928;47035.436; 0.31762
 543.92;22902.580;  322.791;46647.473; 0.31209
 544.50;22944.778;  319.637;46212.001; 0.30715
 545.08;23004.518;  303.653;45900.067; 0.30289
 545.67;23033.976;  304.594;45544.519; 0.29893
 546.25;23145.722;  306.855;45243.598; 0.29393
 546.83;23198.349;  305.919;44881.223; 0.28940
 547.41;23373.422;  307.185;44485.963; 0.28224
 548.00;23374.541;  304.048;44073.416; 0.27811
 548.58;23402.140;  293.554;43651.340; 0.27329
 549.16;23371.773;  273.252;43462.973; 0.27180
 549.74;23492.473;  276.221;43125.006; 0.26615
 550.33;23499.496;  287.338;42789.017; 0.26269
 550.91;23621.620;  287.502;42328.145; 0.25568
 551.49;23710.530;  275.114;42084.067; 0.25140
 552.07;23923.140;  281.527;41894.675; 0.24555
 552.66;24104.055;  296.715;41696.915; 0.24029
 553.24;24207.276;  301.874;41407.799; 0.23541
 553.82;24319.208;  287.046;41262.389; 0.23173
 554.40;24245.135;  287.502;41018.645; 0.23048
 554.98;24269.010;  286.839;40927.197; 0.22907
 555.57;24395.581;  295.511;40724.442; 0.22467
 556.15;24649.332;  295.794;40729.857; 0.22019
 556.73;24775.005;  289.872;40584.856; 0.21635
 557.31;24917.254;  280.087;40487.094; 0.21271
 557.89;24937.395;  267.680;40402.230; 0.21135
 558.48;25134.316;  270.725;40389.487; 0.20778
 559.06;25252.135;  269.279;40492.969; 0.20684
 559.64;25543.191;  288.172;40421.363; 0.20116
 560.22;25638.321;  308.276;40298.501; 0.19832
 560.80;25802.926;  311.749;40155.433; 0.19397
 561.39;25832.644;  300.174;40123.139; 0.19304
 561.97;26235.644;  304.256;40118.465; 0.18621
 562.55;26373.102;  305.864;40159.584; 0.18437
 563.13;26629.667;  307.652;40244.814; 0.18106
 563.71;26698.180;  295.320;40343.674; 0.18093
 564.29;26943.338;  296.315;40286.513; 0.17630
 564.88;27120.869;  280.495;40218.374; 0.17260
 565.46;27252.610;  277.260;40267.767; 0.17099
 566.04;27546.084;  269.464;40338.574; 0.16702
 566.62;27858.627;  292.162;40520.457; 0.16415
 567.20;28102.180;  292.265;40647.678; 0.16170
 567.78;28153.920;  300.170;40851.754; 0.16312
 568.36;28278.920;  300.837;41002.754; 0.16280
 568.94;28603.695;  296.460;41004.189; 0.15778
 569.53;28872.700;  295.816;41099.192; 0.15468
 570.11;29202.333;  283.902;41113.488; 0.14980
 570.69;29322.429;  278.869;41248.245; 0.14941
 571.27;29539.113;  279.854;41227.262; 0.14596
 571.85;29706.740;  279.584;41295.220; 0.14420
 572.43;29955.746;  299.078;41479.213; 0.14257
 573.01;30106.735;  288.199;41566.526; 0.14124
 573.59;30224.209;  284.931;41522.011; 0.13905
 574.17;30256.497;  270.419;41423.650; 0.13748
 574.76;30418.932;  278.826;41529.098; 0.13628
 575.34;30691.163;  274.920;41725.997; 0.13443
 575.92;30878.022;  271.771;41808.186; 0.13262
 576.50;31118.338;  265.398;41828.507; 0.12941
 577.08;31253.214;  261.206;41866.048; 0.12789
 577.66;31514.531;  250.776;41875.013; 0.12431
 578.24;31613.350;  252.747;41879.155; 0.12298
 578.82;31686.774;  257.942;41897.583; 0.12218
 579.40;31774.734;  266.978;41903.210; 0.12105
 579.98;31910.819;  273.567;41841.961; 0.11856
 580.56;32037.175;  281.852;41853.319; 0.11698
 581.14;32210.356;  291.659;41917.834; 0.11532
 581.72;32283.768;  280.280;42082.244; 0.11600
 582.30;32464.333;  273.151;42074.467; 0.11345
 582.88;32624.819;  274.650;42152.288; 0.11211
 583.46;32869.678;  282.363;42189.821; 0.10924
 584.04;33032.305;  282.956;42171.457; 0.10689
 584.62;33139.000;  265.125;42197.830; 0.10570
 585.21;33252.938;  267.265;42241.428; 0.10466
 585.79;33466.859;  273.754;42392.009; 0.10342
 586.37;33674.491;  277.118;42415.309; 0.10096
 586.95;33848.656;  275.522;42455.787; 0.09912
 587.53;33991.368;  269.979;42469.819; 0.09741
 588.11;34104.136;  278.442;42585.262; 0.09716
 588.69;34256.062;  282.733;42557.865; 0.09495
 589.27;34246.339;  283.424;42506.477; 0.09454
 589.85;34322.136;  276.026;42443.602; 0.09291
 590.43;34401.475;  271.715;42599.939; 0.09350
 591.01;34573.051;  278.076;42722.853; 0.09259
 591.59;34824.141;  288.299;42936.945; 0.09164
 592.16;34940.186;  287.924;42891.657; 0.08972
 592.74;35003.915;  291.617;42886.045; 0.08887
 593.32;34998.498;  293.193;42739.948; 0.08745
 593.90;35027.187;  297.895;42708.966; 0.08678
 594.48;35062.921;  288.777;42603.037; 0.08523
 595.06;35089.017;  285.245;42684.475; 0.08573
 595.64;35301.113;  272.769;42709.242; 0.08332
 596.22;35371.012;  276.890;42757.472; 0.08296
 596.80;35475.164;  268.138;42505.619; 0.07907
 597.38;35449.441;  264.245;42457.558; 0.07888
 597.96;35540.125;  262.869;42299.911; 0.07614
 598.54;35538.616;  268.057;42320.734; 0.07638
 599.12;35531.294;  272.769;42174.074; 0.07496
 599.70;35363.509;  272.156;42133.628; 0.07661
 600.28;35286.424;  269.178;41999.881; 0.07617
 600.86;35181.786;  273.568;41898.236; 0.07642
 601.44;35286.204;  279.130;41816.989; 0.07429
 602.02;35216.198;  273.135;41601.984; 0.07289
 602.59;35376.051;  269.019;41487.164; 0.06969
 603.17;35375.870;  254.435;41427.991; 0.06905
 603.75;35431.237;  264.600;41407.036; 0.06816
 604.33;35291.571;  268.544;41269.041; 0.06844
 604.91;35266.175;  272.574;41056.648; 0.06650
 605.49;35125.932;  271.546;40985.067; 0.06748
 606.07;35080.091;  254.900;40828.877; 0.06635
 606.65;34882.916;  260.422;40696.701; 0.06741
 607.23;34871.350;  264.441;40448.820; 0.06489
 607.80;34739.904;  277.156;40221.379; 0.06410
 608.38;34700.339;  277.256;40025.464; 0.06247
 608.96;34565.882;  285.786;39921.000; 0.06304
 609.54;34430.593;  288.246;39743.725; 0.06281
 610.12;34268.910;  283.928;39528.375; 0.06249
 610.70;34115.153;  273.259;39095.265; 0.05962
 611.28;33929.616;  259.195;38813.390; 0.05882
 611.85;33687.125;  265.841;38433.913; 0.05768
 612.43;33495.164;  260.695;38304.961; 0.05870
 613.01;33279.034;  263.202;38019.161; 0.05826
 613.59;33178.656;  249.299;37795.112; 0.05698
 614.17;32945.955;  240.914;37668.085; 0.05857
 614.75;32828.740;  222.778;37521.205; 0.05839
 615.32;32597.650;  209.277;37291.775; 0.05878
 615.90;32507.774;  219.080;36866.572; 0.05499
 616.48;32322.187;  232.952;36658.988; 0.05505
 617.06;32129.356;  255.157;36308.488; 0.05351
 617.64;31834.345;  246.140;36072.812; 0.05468
 618.22;31596.384;  241.049;35666.522; 0.05300
 618.79;31386.819;  228.178;35515.632; 0.05404
 619.37;31192.203;  227.104;35180.352; 0.05262
 619.95;30976.802;  231.387;34894.600; 0.05209
 620.53;30680.034;  218.869;34491.494; 0.05120
 621.11;30404.830;  206.529;34156.975; 0.05086
 621.68;30108.887;  201.116;33920.700; 0.05210
 622.26;30069.305;  202.843;33803.106; 0.05116
 622.84;29901.910;  212.594;33643.042; 0.05154
 623.42;29708.271;  214.208;33340.072; 0.05043
 623.99;29515.356;  232.130;33128.823; 0.05053
 624.57;29379.407;  239.695;32874.211; 0.04919
 625.15;29222.141;  249.244;32723.283; 0.04954
 625.73;28930.305;  235.066;32483.448; 0.05070
 626.30;28726.983;  228.444;32290.122; 0.05116
 626.88;28598.130;  228.031;32032.596; 0.04963
 627.46;28474.311;  230.061;31766.787; 0.04789
 628.04;28254.073;  242.419;31549.234; 0.04830
 628.61;28098.943;  241.899;31249.103; 0.04653
 629.19;27977.260;  244.829;31015.066; 0.04514
 629.77;27832.288;  231.831;30736.758; 0.04345
 630.35;27607.051;  234.217;30562.869; 0.04453
 630.92;27396.429;  232.092;30375.921; 0.04520
 631.50;27277.977;  220.757;30199.145; 0.04453
 632.08;27013.175;  206.521;29949.680; 0.04514
 632.66;26803.960;  196.801;29744.460; 0.04552
 633.23;26606.926;  216.776;29426.430; 0.04408
 633.81;26483.186;  225.566;29138.020; 0.04183
 634.39;26293.265;  220.298;28844.754; 0.04055
 634.96;26012.305;  221.956;28624.791; 0.04190
 635.54;25856.395;  216.680;28606.896; 0.04426
 636.12;25603.457;  214.735;28334.976; 0.04438
 636.69;25478.078;  204.526;28222.591; 0.04477
 637.27;25306.666;  199.403;27913.834; 0.04291
 637.85;25122.565;  217.219;27696.062; 0.04271
 638.42;24943.158;  206.286;27392.989; 0.04101
 639.00;24748.948;  223.367;27259.457; 0.04232
 639.58;24568.095;  209.789;26981.612; 0.04103
 640.15;24402.952;  222.891;26790.445; 0.04089
 640.73;24139.400;  204.119;26492.226; 0.04072
 641.31;24053.848;  216.013;26471.006; 0.04195
 641.88;23883.630;  210.908;26285.787; 0.04197
 642.46;23895.412;  226.803;26132.901; 0.03923
 643.04;23772.526;  214.697;25934.349; 0.03813
 643.61;23570.975;  223.925;25817.463; 0.03990
 644.19;23364.756;  209.153;25659.577; 0.04104
 644.77;23250.871;  224.048;25468.358; 0.03993
 645.34;23179.319;  211.943;25293.805; 0.03825
 645.92;23046.101;  214.504;25070.586; 0.03690
 646.49;22814.882;  218.399;24938.033; 0.03900
 647.07;22625.331;  220.293;24745.814; 0.03927
 647.65;22547.779;  224.188;24564.928; 0.03757
 648.22;22523.227;  218.082;24391.042; 0.03492
 648.80;22564.009;  227.310;24368.156; 0.03373
 649.37;22424.457;  227.872;24339.937; 0.03595
 649.95;22367.238;  227.433;24242.051; 0.03530
 650.53;22267.020;  209.328;24121.165; 0.03505
 651.10;22126.135;  214.222;24054.279; 0.03663
 651.68;21917.916;  211.450;24020.060; 0.04014
 652.25;21839.031;  221.012;23899.174; 0.03953
 652.83;21816.479;  211.573;23700.955; 0.03632
 653.41;21704.261;  208.468;23524.069; 0.03529
 653.98;21605.709;  212.362;23340.850; 0.03387
 654.56;21487.491;  211.590;23307.630; 0.03565
 655.13;21487.606;  208.818;23285.744; 0.03523
 655.71;21409.720;  207.379;23284.525; 0.03680
 656.28;21384.502;  194.941;23185.639; 0.03543
 656.86;21336.617;  188.169;22962.753; 0.03217
 657.43;21251.065;  190.397;22872.868; 0.03222
 658.01;21172.513;  212.958;22793.315; 0.03235
 658.58;21230.962;  207.519;22876.096; 0.03272
 659.16;21149.743;  211.747;22798.876; 0.03293
 659.74;21065.858;  196.309;22777.324; 0.03423
 660.31;20879.640;  204.203;22714.438; 0.03693
 660.89;20857.088;  198.098;22687.885; 0.03688
 661.46;20832.869;  206.659;22545.999; 0.03465
 662.04;20811.651;  208.554;22516.780; 0.03453
 662.61;20827.099;  207.448;22500.894; 0.03390
 663.19;20974.881;  206.676;22626.342; 0.03323
 663.76;21068.995;  209.571;22600.456; 0.03077
 664.34;21105.444;  211.132;22526.237; 0.02857
 664.91;21122.225;  214.027;22413.684; 0.02603
 665.49;21134.673;  216.922;22441.798; 0.02632
 666.06;21196.788;  213.150;22513.246; 0.02643
 666.64;21181.237;  212.044;22555.693; 0.02757
 667.21;21145.685;  216.606;22500.140; 0.02723
 667.79;21035.466;  204.167;22400.588; 0.02757
 668.36;20945.581;  201.395;22402.702; 0.02948
 668.93;20849.363;  202.290;22421.149; 0.03186
 669.51;20832.144;  198.184;22426.263; 0.03232
 670.08;20841.259;  192.412;22387.044; 0.03135
 670.66;20952.041;  189.307;22273.825; 0.02680
 671.23;21031.156;  213.201;22361.606; 0.02690
 671.81;21098.937;  219.763;22403.720; 0.02633
 672.38;21116.385;  224.324;22501.167; 0.02787
 672.96;21064.500;  213.552;22510.281; 0.02912
 673.53;21055.282;  213.113;22482.395; 0.02876
 674.10;21059.730;  213.008;22524.843; 0.02950
 674.68;21212.845;  228.236;22505.290; 0.02596
 675.25;21200.293;  221.131;22417.404; 0.02449
 675.83;21162.408;  215.692;22370.185; 0.02435
 676.40;21016.523;  203.253;22300.299; 0.02599
 676.98;20930.971;  209.148;22323.413; 0.02824
 677.55;20849.419;  210.043;22281.527; 0.02913
 678.12;20804.534;  223.937;22260.975; 0.02970
 678.70;20780.982;  221.832;22236.089; 0.02970
 679.27;20796.097;  229.060;22163.870; 0.02796
 679.85;20780.879;  216.621;22124.984; 0.02750
 680.42;20795.994;  216.516;22133.431; 0.02735
 680.99;20714.442;  192.744;22099.212; 0.02836
 681.57;20706.557;  198.305;22028.659; 0.02713
 682.14;20616.338;  205.866;21848.773; 0.02546
 682.71;20626.120;  210.761;21795.554; 0.02419
 683.29;20495.235;  200.656;21706.668; 0.02518
 683.86;20329.016;  185.884;21546.116; 0.02548
 684.43;20143.131;  198.112;21362.230; 0.02577
 685.01;20057.913;  197.006;21197.011; 0.02422
 685.58;20076.361;  206.234;21272.458; 0.02539
 686.16;20141.476;  206.462;21269.239; 0.02390
 686.73;20149.924;  215.023;21397.686; 0.02637
 687.30;20115.706;  207.585;21388.467; 0.02691
 687.88;20059.154;  217.479;21321.914; 0.02680
 688.45;19990.269;  210.707;21118.362; 0.02409
 689.02;19872.050;  213.602;21022.142; 0.02469
 689.60;19757.832;  190.497;20889.257; 0.02441
 690.17;19748.280;  199.391;20926.704; 0.02542
 690.74;19833.395;  189.619;20805.485; 0.02098
 691.31;19796.176;  204.181;20824.932; 0.02223
 691.89;19720.291;  191.742;20754.713; 0.02242
 692.46;19643.406;  212.637;20700.494; 0.02301
 693.03;19592.188;  229.198;20611.941; 0.02229
 693.61;19502.969;  234.759;20426.722; 0.02034
 694.18;19434.418;  237.320;20424.503; 0.02184
 694.75;19337.866;  206.882;20414.950; 0.02379
 695.32;19300.647;  208.110;20458.064; 0.02556
 695.90;19194.429;  203.004;20312.512; 0.02484
 696.47;19136.544;  203.899;20210.626; 0.02396
 697.04;19164.992;  214.460;20060.073; 0.02004
 697.62;19100.774;  213.355;20039.187; 0.02106
 698.19;19123.555;  229.250;19951.301; 0.01862
 698.76;18976.670;  211.144;19960.082; 0.02218
 699.33;18926.452;  210.706;19883.196; 0.02165
 699.91;18873.233;  196.600;19795.977; 0.02094
 700.48;18759.015;  206.162;19674.091; 0.02091
 701.05;18649.129;  208.056;19645.538; 0.02285
 701.62;18493.911;  232.951;19536.652; 0.02412
 702.20;18489.693;  235.179;19463.767; 0.02258
 702.77;18485.807;  232.073;19314.881; 0.01929
 703.34;18473.922;  217.301;19303.995; 0.01931
 703.91;18356.371;  214.196;19161.775; 0.01886
 704.48;18275.485;  220.091;19054.223; 0.01834
 705.06;18239.600;  212.652;18964.004; 0.01711
 705.63;18216.382;  221.213;18940.118; 0.01712
 706.20;18092.497;  214.441;18934.565; 0.01999
 706.77;18000.278;  221.336;18864.679; 0.02062
 707.34;17981.727;  215.564;18821.793; 0.02006
 707.92;17895.175;  205.792;18710.907; 0.01958
 708.49;17757.623;  193.353;18575.022; 0.01975
 709.06;17584.404;  193.248;18466.136; 0.02148
 709.63;17625.519;  194.476;18431.916; 0.01964
 710.20;17620.301;  191.037;18446.697; 0.02012
 710.77;17589.082;  187.932;18338.145; 0.01830
 711.35;17591.864;  185.826;18305.592; 0.01745
 711.92;17691.979;  205.721;18271.706; 0.01416
 712.49;17822.760;  207.616;18372.487; 0.01335
 713.06;17862.875;  215.844;18405.934; 0.01316
 713.63;17721.990;  209.405;18498.382; 0.01884
 714.20;17642.772;  212.300;18556.829; 0.02220
 714.78;17586.887;  209.528;18487.277; 0.02194
 715.35;17585.002;  205.756;18407.724; 0.02009
 715.92;17595.116;  207.317;18351.838; 0.01850
 716.49;17630.565;  222.545;18343.285; 0.01743
 717.06;17711.680;  226.106;18273.400; 0.01373
 717.63;17670.461;  217.334;18198.847; 0.01295
 718.20;17618.909;  210.895;18175.294; 0.01366
 718.77;17548.691;  224.790;18170.075; 0.01530
 719.35;17566.472;  226.351;18153.189; 0.01445
 719.92;17497.921;  211.913;18038.303; 0.01337
 720.49;17438.035;  197.474;17879.084; 0.01097
 721.06;17210.817;  177.369;17774.532; 0.01414
 721.63;17096.265;  190.930;17799.979; 0.01771
 722.20;17080.047;  195.825;17861.426; 0.01965
 722.77;17120.495;  203.386;17825.540; 0.01773
 723.34;17163.943;  196.947;17821.321; 0.01651
 723.91;17145.725;  205.509;17813.102; 0.01678
 724.48;17163.173;  222.070;17777.883; 0.01548
 725.05;17074.621;  212.964;17617.997; 0.01377
 725.62;17000.069;  195.192;17490.778; 0.01250
 726.20;16970.518;  186.754;17461.892; 0.01253
 726.77;17009.966;  192.982;17446.339; 0.01113
 727.34;16979.414;  199.210;17412.787; 0.01107
 727.91;16880.529;  209.104;17361.567; 0.01235
 728.48;16867.310;  214.999;17354.015; 0.01251
 729.05;16800.092;  215.560;17353.795; 0.01426
 729.62;16852.540;  192.788;17320.910; 0.01204
 730.19;16818.655;  185.683;17297.024; 0.01231
 730.76;16876.437;  188.578;17324.138; 0.01150
 731.33;16835.218;  211.472;17306.252; 0.01213
 731.90;16797.000;  215.034;17274.033; 0.01232
 732.47;16768.781;  206.261;17242.147; 0.01224
 733.04;16770.563;  191.156;17245.594; 0.01227
 733.61;16715.011;  168.051;17256.042; 0.01397
 734.18;16641.126;  173.945;17191.156; 0.01427
 734.75;16507.574;  184.507;17077.270; 0.01490
 735.32;16436.022;  211.401;16955.384; 0.01368
 735.89;16344.804;  203.963;16851.831; 0.01343
 736.46;16322.252;  212.191;16734.945; 0.01099
 737.03;16328.034;  203.085;16674.393; 0.00923
 737.60;16289.482;  203.647;16580.840; 0.00780
 738.17;16224.597;  173.208;16558.621; 0.00894
 738.74;16103.045;  184.103;16523.735; 0.01133
 739.31;15980.493;  185.331;16430.849; 0.01221
 739.88;15884.608;  195.225;16300.630; 0.01137
 740.45;15805.390;  176.120;16234.411; 0.01176
 741.02;15824.838;  174.348;16293.858; 0.01282
 741.59;15798.953;  171.909;16337.305; 0.01471
 742.15;15829.734;  177.804;16325.753; 0.01355
 742.72;15839.849;  185.365;16376.867; 0.01465
 743.29;15878.297;  187.593;16351.648; 0.01291
 743.86;15824.746;  195.154;16298.095; 0.01296
 744.43;15867.194;  197.049;16220.543; 0.00968
 745.00;15913.975;  201.277;16240.323; 0.00893
 745.57;15939.090;  209.172;16261.771; 0.00882
 746.14;15893.205;  201.733;16198.552; 0.00837
 746.71;15812.320;  208.294;16179.666; 0.01011
 747.28;15848.435;  196.522;16170.446; 0.00884
 747.85;15827.883;  172.417;16124.227; 0.00814
 748.42;15878.665;  173.645;16103.675; 0.00618
 748.98;15799.113;  177.206;16075.455; 0.00762
 749.55;15771.894;  197.767;16011.569; 0.00663
 750.12;15732.676;  197.662;16015.683; 0.00784
 750.69;15609.791;  204.890;15955.131; 0.00963
 751.26;15491.239;  216.118;15910.245; 0.01175
 751.83;15370.021;  206.013;15821.026; 0.01273
 752.40;15438.469;  204.907;15769.807; 0.00934
 752.97;15414.250;  192.802;15780.587; 0.01033
 753.53;15407.032;  195.697;15773.035; 0.01033
 754.10;15421.147;  187.925;15706.815; 0.00807
 754.67;15444.595;  185.486;15666.263; 0.00626
 755.24;15443.377;  192.714;15616.044; 0.00489
 755.81;15391.825;  200.608;15583.491; 0.00545
 756.38;15326.940;  223.503;15510.272; 0.00524
 756.94;15290.055;  215.064;15482.386; 0.00551
 757.51;15175.836;  204.292;15502.833; 0.00938
 758.08;15173.951;  196.520;15545.281; 0.01064
 758.65;15060.399;  213.748;15443.728; 0.01107
 759.22;15025.514;  220.643;15351.176; 0.00945
 759.79;14905.962;  205.538;15180.623; 0.00804
 760.35;14790.077;  191.432;15130.404; 0.01001
 760.92;14583.859;  201.994;14987.518; 0.01202
 761.49;14402.307;  208.555;14849.965; 0.01349
 762.06;14283.755;  211.783;14641.079; 0.01089
 762.63;14291.203;  201.011;14500.527; 0.00640
 763.19;14235.318;  203.239;14469.641; 0.00719
 763.76;14192.100;  215.133;14423.422; 0.00713
 764.33;14020.881;  219.695;14294.202; 0.00852
 764.90;13856.996;  218.589;14107.650; 0.00791
 765.46;13689.444;  197.817;13914.097; 0.00717
 766.03;13538.226;  196.045;13749.878; 0.00684
 766.60;13470.008;  197.940;13624.992; 0.00504
 767.17;13350.456;  205.501;13465.773; 0.00379
 767.73;13163.237;  207.063;13413.220; 0.00830
 768.30;13039.019;  206.624;13205.001; 0.00558
 768.87;12849.467;  215.185;13045.782; 0.00670
 769.44;12732.582;  213.413;12836.229; 0.00358
 770.00;12538.697;  215.975;12686.677; 0.00518
 770.57;12393.812;  216.536;12525.791; 0.00468
 771.14;12201.927;  213.430;12350.238; 0.00534
 771.71;11931.375;  198.325;12122.686; 0.00702
 772.27;11698.490;  206.220;11935.800; 0.00888
 772.84;11538.271;  209.448;11715.914; 0.00676
 773.41;11394.386;  213.676;11595.695; 0.00775
 773.97;11323.834;  205.904;11440.809; 0.00455
 774.54;11210.616;  213.798;11314.923; 0.00410
 775.11;11099.731;  232.360;11227.370; 0.00507
 775.67;10938.846;  228.588;11074.818; 0.00548
 776.24;10799.627;  222.482;10902.265; 0.00419
 776.81;10677.075;  220.377;10665.712;-0.00047
 777.38;10449.190;  208.272;10484.160; 0.00148
 777.94;10288.972;  214.166;10350.941; 0.00266
 778.51;10091.753;  199.728;10214.721; 0.00537
 779.08;10045.535;  210.622;10137.835; 0.00406
 779.64; 9944.983;  201.517;10058.283; 0.00502
 780.21; 9867.765;  202.745; 9970.064; 0.00457
 780.78; 9743.213;  211.639; 9870.178; 0.00575
 781.34; 9653.994;  212.534; 9787.625; 0.00610
 781.91; 9559.109;  225.762; 9703.406; 0.00666
 782.47; 9489.558;  227.990; 9633.520; 0.00670
 783.04; 9368.339;  238.551; 9482.634; 0.00540
 783.61; 9356.121;  245.779; 9385.415; 0.00139
 784.17; 9244.902;  246.674; 9320.196; 0.00362
 784.74; 9172.350;  236.569; 9240.310; 0.00329
 785.31; 9040.799;  244.797; 9256.090; 0.01050
 785.87; 9060.914;  248.691; 9137.538; 0.00376
 786.44; 9043.362;  252.252; 9126.319; 0.00408
 787.00; 8975.143;  239.480; 9065.766; 0.00448
 787.57; 8875.592;  222.375; 9005.880; 0.00649
 788.14; 8794.040;  242.936; 8941.661; 0.00743
 788.70; 8798.821;  252.831; 8828.442; 0.00150
 789.27; 8795.936;  261.392; 8880.222; 0.00427
 789.83; 8800.384;  247.620; 8836.003; 0.00180
 790.40; 8763.499;  230.182; 8838.117; 0.00378
 790.96; 8714.281;  235.076; 8799.898; 0.00436
 791.53; 8656.062;  229.304; 8766.679; 0.00566
 792.10; 8643.844;  224.866; 8777.126; 0.00682
 792.66; 8601.292;  219.094; 8720.574; 0.00614
 793.23; 8585.740;  214.988; 8733.688; 0.00761
 793.79; 8559.855;  216.216; 8675.468; 0.00598
 794.36; 8592.970;  210.777; 8660.249; 0.00347
 794.92; 8547.418;  219.339; 8606.363; 0.00306
 795.49; 8503.533;  232.233; 8532.811; 0.00153
 796.05; 8461.648;  243.461; 8505.258; 0.00230
 796.62; 8410.096;  248.023; 8527.372; 0.00620
 797.19; 8354.878;  237.917; 8507.820; 0.00811
 797.75; 8348.326;  226.145; 8453.600; 0.00559
 798.32; 8410.441;  218.373; 8393.714;-0.00089
 798.88; 8451.556;  222.601; 8383.829;-0.00359
 799.45; 8434.337;  224.829; 8436.276; 0.00010
 800.01; 8500.119;  220.391; 8517.723; 0.00092
 800.58; 8690.234;  215.952; 8677.504;-0.00065
 801.14; 8905.349;  222.513; 8916.952; 0.00058
 801.71; 9181.464;  218.074; 9117.399;-0.00312
 802.27; 9409.578;  206.969; 9310.180;-0.00472
 802.84; 9666.693;  188.864; 9480.294;-0.00863
 803.40; 9910.475;  179.758; 9723.075;-0.00845
 803.96;10167.256;  198.986;10006.189;-0.00707
 804.53;10454.038;  210.548;10273.303;-0.00773
 805.09;10719.486;  208.442;10576.417;-0.00595
 805.66;11026.934;  200.670;10926.198;-0.00406
 806.22;11410.049;  172.898;11264.978;-0.00564
 806.79;11817.831;  185.793;11622.426;-0.00736
 807.35;12193.946;  182.354;11886.873;-0.01125
 807.92;12465.394;  214.582;12161.654;-0.01090
 808.48;12706.509;  221.810;12436.768;-0.00949
 809.05;12931.957;  217.705;12708.882;-0.00769
 809.61;13176.739;  213.933;13054.330;-0.00412
 810.17;13488.187;  218.827;13355.110;-0.00438
 810.74;13857.302;  231.055;13671.891;-0.00595
 811.30;14188.417;  226.617;13899.672;-0.00908
 811.87;14557.865;  214.511;14212.453;-0.01059
 812.43;14946.980;  214.406;14571.233;-0.01122
 812.99;15320.095;  216.967;14881.014;-0.01281
 813.56;15621.209;  221.862;15191.462;-0.01229
 814.12;15835.658;  221.090;15523.909;-0.00876
 814.69;16155.106;  216.318;15866.356;-0.00794
 815.25;16405.887;  210.213;16143.804;-0.00709
 815.81;16763.669;  200.774;16302.251;-0.01227
 816.38;17081.784;  196.335;16642.699;-0.01144
 816.94;17422.232;  193.897;16882.479;-0.01382
 817.51;17695.347;  192.791;17283.594;-0.01034
 818.07;17940.795;  201.019;17504.374;-0.01082
 818.63;18144.577;  202.247;17804.155;-0.00832
 819.20;18372.358;  201.808;18033.936;-0.00816
 819.76;18622.473;  209.370;18216.050;-0.00969
 820.32;18864.921;  216.598;18394.831;-0.01109
 820.89;19052.370;  218.159;18583.278;-0.01095
 821.45;19139.151;  193.387;18775.726;-0.00841
 822.01;19196.599;  176.615;18965.173;-0.00532
 822.58;19186.381;  180.843;19065.620;-0.00277
 823.14;19285.496;  194.404;19233.068;-0.00119
 823.70;19435.944;  202.299;19352.182;-0.00190
 824.27;19471.392;  193.194;19462.963;-0.00019
 824.83;19497.507;  215.421;19467.743;-0.00067
 825.39;19450.955;  215.649;19374.524;-0.00173
 825.95;19444.070;  221.211;19316.972;-0.00288
 826.52;19399.518;  191.105;19274.752;-0.00283
 827.08;19254.633;  189.000;19152.200;-0.00234
 827.64;19095.081;  175.895;18949.314;-0.00336
 828.21;18817.863;  175.123;18660.095;-0.00369
 828.77;18515.311;  181.351;18397.542;-0.00280
 829.33;18148.426;  183.579;18029.323;-0.00289
 829.89;17727.208;  181.807;17638.104;-0.00221
 830.46;17365.323;  185.701;17297.218;-0.00173
 831.02;17024.104;  190.596;16895.332;-0.00334
 831.58;16652.886;  201.157;16540.779;-0.00297
 832.15;16248.334;  185.052;16128.893;-0.00324
 832.71;15851.782;  188.280;15811.341;-0.00112
 833.27;15490.230;  178.841;15353.455;-0.00390
 833.83;14981.679;  169.736;14940.569;-0.00121
 834.39;14518.793;  164.297;14394.016;-0.00379
 834.96;13940.575;  162.192;13925.464;-0.00048
 835.52;13595.690;  187.086;13474.578;-0.00394
 836.08;13162.138;  188.981;13047.025;-0.00387
 836.64;12799.253;  194.876;12619.473;-0.00624
 837.21;12298.368;  198.770;12148.920;-0.00540
 837.77;11840.149;  198.332;11759.367;-0.00302
 838.33;11404.598;  206.893;11447.148; 0.00165
 838.89;11000.712;  203.121;11001.596; 0.00004
 839.45;10607.161;  205.349;10589.710;-0.00073
 840.02;10261.942;  209.910;10134.490;-0.00554
 840.58; 9944.057;  201.805; 9836.938;-0.00480
 841.14; 9589.839;  224.699; 9457.052;-0.00620
 841.70; 9145.954;  220.594; 9049.833;-0.00470
 842.26; 8698.068;  218.155; 8613.280;-0.00436
 842.82; 8249.517;  209.050; 8233.061;-0.00089
 843.39; 7832.631;  200.278; 7802.175;-0.00174
 843.95; 7494.746;  213.839; 7446.956;-0.00286
 844.51; 7126.861;  213.734; 7076.737;-0.00316
 845.07; 6843.643;  223.295; 6751.184;-0.00611
 845.63; 6512.758;  228.523; 6447.965;-0.00450
 846.19; 6270.206;  213.418; 6205.745;-0.00465
 846.75; 6089.987;  212.646; 6042.860;-0.00350
 847.32; 5886.102;  191.874; 5828.307;-0.00443
 847.88; 5751.217;  198.435; 5647.088;-0.00822
 848.44; 5494.665;  182.996; 5418.202;-0.00630
 849.00; 5354.780;  188.224; 5206.649;-0.01263
 849.56; 5206.229;  183.119; 5035.763;-0.01499
 850.12; 5117.010;  176.680; 4913.211;-0.01830
 850.68; 4961.125;  181.908; 4877.325;-0.00768
 851.24; 4886.907;  184.136; 4806.439;-0.00750
 851.80; 4877.688;  199.364; 4790.220;-0.00820
 852.37; 4910.803;  196.592; 4731.334;-0.01686
 852.93; 4856.918;  204.820; 4729.448;-0.01207
 853.49; 4797.033;  212.715; 4650.895;-0.01407
 854.05; 4734.481;  223.943; 4597.676;-0.01338
 854.61; 4703.262;  224.171; 4520.790;-0.01806
 855.17; 4655.044;  234.066; 4501.904;-0.01531
 855.73; 4637.492;  222.627; 4484.352;-0.01533
 856.29; 4611.607;  213.855; 4475.132;-0.01369
 856.85; 4629.722;  192.749; 4517.913;-0.01108
 857.41; 4702.837;  203.644; 4600.027;-0.01004
 857.97; 4783.285;  205.205; 4760.141;-0.00220
 858.53; 4924.733;  207.433; 4902.255;-0.00207
 859.09; 5083.848;  192.328; 5028.370;-0.00495
 859.65; 5360.296;  184.889; 5166.484;-0.01658
 860.21; 5612.078;  182.451; 5403.598;-0.01700
 860.77; 5894.526;  179.679; 5685.045;-0.01622
 861.33; 6202.641;  189.573; 6014.826;-0.01378
 861.89; 6571.756;  205.135; 6331.273;-0.01672
 862.45; 6949.871;  215.363; 6656.387;-0.01935
 863.01; 7280.652;  205.924; 6960.168;-0.02013
 863.57; 7607.767;  191.152; 7240.949;-0.02203
 864.13; 7939.882;  180.713; 7598.730;-0.01953
 864.69; 8274.997;  188.608; 7928.510;-0.01902
 865.25; 8625.445;  208.502; 8274.958;-0.01847
 865.81; 8934.893;  215.730; 8598.739;-0.01707
 866.37; 9265.342;  213.625; 8883.853;-0.01870
 866.93; 9606.790;  200.853; 9198.967;-0.01925
 867.49; 9905.905;  216.081; 9536.081;-0.01690
 868.05;10279.020;  210.642; 9849.195;-0.01895
 868.61;10563.135;  206.870;10116.309;-0.01915
 869.17;10936.916;  185.765;10306.090;-0.02626
 869.73;11233.698;  202.660;10652.537;-0.02351
 870.29;11541.479;  209.554;10985.985;-0.02183
 870.85;11840.927;  212.115;11316.099;-0.02006
 871.41;12162.376;  192.010;11700.213;-0.01710
 871.97;12548.490;  179.571;12032.994;-0.01849
 872.53;12938.939;  184.799;12414.108;-0.01825
 873.09;13287.054;  192.361;12748.222;-0.01825
 873.65;13703.502;  202.922;13125.336;-0.01901
 874.20;14148.283;  204.150;13530.783;-0.01967
 874.76;14520.617;  206.483;13844.450;-0.02102
 875.32;14804.617;  199.150;14344.450;-0.01390
 875.88;15103.283;  204.817;14722.117;-0.01126
 876.44;15531.950;  218.150;15059.450;-0.01361
 877.00;15933.617;  218.150;15358.117;-0.01620
 877.56;16313.617;  215.483;15696.450;-0.01698
 878.12;16550.950;  204.483;16104.450;-0.01203
 878.68;16826.950;  211.817;16344.450;-0.01280
 879.23;17033.283;  207.150;16637.783;-0.01033
 879.79;17434.950;  220.483;16875.783;-0.01434
 880.35;17691.617;  205.150;17127.117;-0.01425
 880.91;17900.950;  192.150;17367.783;-0.01328
 881.47;18140.283;  175.817;17611.783;-0.01297
 882.03;18415.950;  191.483;17929.783;-0.01174
 882.59;18816.950;  204.150;18199.450;-0.01465
 883.14;18960.617;  217.150;18423.117;-0.01264
 883.70;19141.283;  220.150;18492.117;-0.01516
 884.26;19154.283;  217.483;18606.117;-0.01276
 884.82;19242.617;  200.150;18627.783;-0.01425
 885.38;19259.950;  184.483;18693.783;-0.01309
 885.94;19356.283;  186.817;18692.783;-0.01530
 886.49;19334.617;  200.150;18759.783;-0.01325
 887.05;19280.950;  192.817;18819.450;-0.01063
 887.61;19103.950;  182.817;18766.450;-0.00782
 888.17;18955.283;  175.817;18655.450;-0.00699
 888.73;18805.617;  189.483;18492.450;-0.00737
 889.28;18683.283;  190.150;18251.117;-0.01027
 889.84;18535.283;  191.817;18020.450;-0.01236
 890.40;18402.617;  194.817;17792.450;-0.01480
 890.96;18244.950;  199.483;17628.450;-0.01510
 891.51;18085.283;  189.483;17470.117;-0.01519
 892.07;17845.617;  183.817;17244.117;-0.01505
 892.63;17651.617;  190.483;17036.783;-0.01557
 893.19;17503.283;  200.817;16880.117;-0.01593
 893.74;17362.283;  215.150;16772.783;-0.01519
 894.30;17200.617;  206.150;16671.450;-0.01374
 894.86;17044.283;  185.150;16510.450;-0.01397
 895.42;16973.283;  176.483;16397.450;-0.01515
 895.97;16892.283;  175.150;16362.450;-0.01399
 896.53;16839.617;  203.817;16299.450;-0.01434
 897.09;16763.617;  212.817;16258.117;-0.01347
 897.65;16737.617;  225.483;16079.783;-0.01766
 898.20;16588.283;  228.483;15994.117;-0.01607
 898.76;16505.617;  215.150;15888.117;-0.01678
 899.32;16389.283;  215.483;15824.450;-0.01544
 899.87;16336.617;  206.483;15765.117;-0.01567
 900.43;16174.283;  206.150;15631.783;-0.01501
 900.99;16034.950;  194.483;15508.450;-0.01468
 901.54;15812.950;  181.150;15319.450;-0.01393
 902.10;15654.950;  193.150;15133.117;-0.01491
 902.66;15456.617;  208.483;14918.117;-0.01561
 903.21;15339.283;  221.817;14754.117;-0.01714
 903.77;15130.283;  229.483;14588.450;-0.01609
 904.33;14971.283;  209.483;14443.783;-0.01580
 904.88;14838.283;  198.150;14329.783;-0.01535
 905.44;14840.950;  177.150;14293.450;-0.01653
 906.00;14785.617;  191.150;14324.117;-0.01395
 906.55;14717.950;  207.483;14294.117;-0.01287
 907.11;14522.617;  214.150;14239.117;-0.00869
 907.67;14315.950;  205.817;14016.117;-0.00933
 908.22;14161.283;  196.150;13855.783;-0.00961
 908.78;14122.283;  187.817;13715.783;-0.01286
 909.33;14039.950;  195.483;13616.783;-0.01348
 909.89;13932.950;  192.150;13488.783;-0.01427
 910.45;13789.617;  201.150;13406.783;-0.01241
 911.00;13682.950;  191.483;13362.117;-0.01045
 911.56;13584.617;  203.817;13272.117;-0.01026
 912.12;13485.283;  208.483;13101.117;-0.01275
 912.67;13458.283;  221.483;12951.117;-0.01697
 913.23;13339.283;  194.150;12807.450;-0.01794
 913.78;13172.617;  178.483;12651.783;-0.01777
 914.34;13037.617;  201.483;12642.117;-0.01359
 914.89;12989.950;  216.483;12543.117;-0.01546
 915.45;12965.283;  227.150;12558.117;-0.01411
 916.01;12884.950;  195.483;12386.117;-0.01742
 916.56;12707.617;  201.483;12282.450;-0.01502
 917.12;12572.617;  196.817;12063.117;-0.01826
 917.67;12392.283;  195.483;11981.117;-0.01489
 918.23;12238.617;  182.817;11944.450;-0.01073
 918.78;12113.950;  186.483;11927.117;-0.00686
 919.34;11998.617;  188.817;11843.783;-0.00573
 919.89;11961.950;  199.150;11694.117;-0.01000
 920.45;11833.617;  185.817;11531.783;-0.01140
 921.00;11690.617;  168.817;11330.783;-0.01378
 921.56;11528.950;  176.150;11296.783;-0.00897
 922.11;11365.283;  175.150;11154.450;-0.00826
 922.67;11234.950;  202.483;11048.450;-0.00740
 923.22;11095.283;  191.150;10815.450;-0.01129
 923.78;10968.617;  202.817;10632.117;-0.01379
 924.33;10803.283;  195.817;10497.117;-0.01272
 924.89;10628.283;  196.483;10361.117;-0.01127
 925.44;10505.617;  204.817;10248.117;-0.01099
 926.00;10360.950;  201.150;10018.783;-0.01488
 926.55;10270.950;  205.150; 9867.117;-0.01778
 927.11;10118.950;  188.150; 9720.450;-0.01779
 927.66;10034.283;  177.817; 9717.117;-0.01420
 928.22; 9924.283;  174.483; 9670.783;-0.01144
 928.77; 9931.950;  190.150; 9636.117;-0.01339
 929.33; 9894.950;  204.150; 9587.783;-0.01399
 929.88; 9847.617;  205.150; 9516.450;-0.01518
 930.43; 9779.950;  182.483; 9493.450;-0.01316
 930.99; 9786.283;  174.817; 9470.117;-0.01453
 931.54; 9830.617;  167.150; 9456.783;-0.01713
 932.10; 9820.283;  190.150; 9473.117;-0.01595
 932.65; 9817.283;  197.150; 9480.117;-0.01549
 933.21; 9804.283;  198.483; 9496.450;-0.01415
 933.76; 9817.950;  187.483; 9472.117;-0.01588
 934.31; 9841.950;  183.150; 9454.117;-0.01780
 934.87; 9839.283;  190.150; 9433.783;-0.01865
 935.42; 9871.283;  199.483; 9431.450;-0.02021
 935.98; 9840.283;  195.483; 9388.450;-0.02084
 936.53; 9829.950;  193.817; 9335.450;-0.02288
 937.08; 9748.617;  191.150; 9347.783;-0.01861
 937.64; 9641.950;  197.817; 9356.783;-0.01332
 938.19; 9609.283;  196.483; 9425.117;-0.00858
 938.74; 9634.283;  199.817; 9340.117;-0.01376
 939.30; 9698.283;  187.150; 9339.783;-0.01669
 939.85; 9678.283;  186.483; 9209.783;-0.02198
 940.40; 9662.283;  173.817; 9251.783;-0.01921
 940.96; 9699.950;  187.150; 9238.450;-0.02160
 941.51; 9640.950;  189.483; 9244.783;-0.01860
 942.06; 9543.617;  197.150; 9160.450;-0.01818
 942.62; 9387.617;  184.817; 9036.783;-0.01688
 943.17; 9336.950;  195.150; 8966.450;-0.01797
 943.72; 9291.950;  180.483; 8903.117;-0.01894
 944.28; 9232.617;  199.483; 8795.117;-0.02156
 944.83; 9131.950;  184.150; 8766.783;-0.01810
 945.38; 9075.283;  194.483; 8735.117;-0.01696
 945.94; 9103.950;  186.483; 8804.450;-0.01484
 946.49; 9128.283;  205.150; 8772.783;-0.01766
 947.04; 9077.283;  208.817; 8738.117;-0.01694
 947.60; 8955.617;  215.150; 8638.117;-0.01607
 948.15; 8834.617;  203.483; 8519.117;-0.01617
 948.70; 8724.950;  212.817; 8413.783;-0.01617
 949.25; 8615.617;  206.150; 8325.117;-0.01527
 949.81; 8543.283;  208.817; 8271.117;-0.01442
 950.36; 8446.950;  198.483; 8157.117;-0.01553
 950.91; 8359.283;  207.150; 8037.783;-0.01747
 951.46; 8200.617;  203.817; 7873.117;-0.01816
 952.02; 7999.950;  207.150; 7734.117;-0.01507
 952.57; 7887.617;  207.150; 7606.450;-0.01620
 953.12; 7743.950;  218.483; 7526.117;-0.01276
 953.67; 7658.283;  218.150; 7443.783;-0.01270
 954.23; 7499.617;  215.817; 7359.450;-0.00844
 954.78; 7389.950;  208.150; 7234.450;-0.00951
 955.33; 7331.617;  218.150; 7119.783;-0.01313
 955.88; 7189.283;  217.150; 6980.117;-0.01323
 956.44; 7125.950;  230.483; 6838.450;-0.01850
 956.99; 7009.283;  228.817; 6737.117;-0.01779
 957.54; 6985.617;  223.817; 6672.783;-0.02057
 958.09; 6952.283;  222.150; 6636.783;-0.02085
 958.64; 6933.950;  206.817; 6607.450;-0.02161
 959.20; 6893.617;  203.483; 6532.450;-0.02410
 959.75; 6803.950;  199.817; 6496.450;-0.02071
 960.30; 6731.283;  218.150; 6441.783;-0.01975
 960.85; 6749.283;  225.150; 6424.450;-0.02218
 961.40; 6720.950;  228.817; 6381.117;-0.02335
 961.95; 6706.283;  231.817; 6360.783;-0.02382
 962.51; 6668.283;  239.483; 6360.117;-0.02133
 963.06; 6668.617;  242.817; 6380.117;-0.01995
 963.61; 6636.283;  234.150; 6314.783;-0.02238
 964.16; 6600.617;  235.150; 6258.450;-0.02400
 964.71; 6616.617;  222.483; 6212.117;-0.02838
 965.26; 6687.617;  213.150; 6253.117;-0.03017
 965.81; 6690.617;  210.817; 6289.117;-0.02778
 966.36; 6672.950;  208.483; 6323.783;-0.02411
 966.92; 6611.617;  216.150; 6305.117;-0.02133
 967.47; 6574.283;  218.483; 6338.117;-0.01644
 968.02; 6615.950;  232.483; 6354.117;-0.01819
 968.57; 6678.950;  234.817; 6375.450;-0.02095
 969.12; 6721.283;  219.817; 6368.783;-0.02421
 969.67; 6777.950;  204.483; 6420.783;-0.02426
 970.22; 6799.950;  194.150; 6469.783;-0.02227
 970.77; 6904.950;  199.817; 6539.117;-0.02437
 971.32; 6924.950;  197.483; 6593.117;-0.02197
 971.87; 7011.283;  198.817; 6693.117;-0.02077
 972.42; 7090.283;  215.150; 6793.117;-0.01919
 972.98; 7189.950;  220.817; 6908.783;-0.01788
 973.53; 7267.950;  231.483; 6996.117;-0.01711
 974.08; 7320.617;  215.483; 7040.450;-0.01747
 974.63; 7375.283;  223.483; 7078.450;-0.01841
 975.18; 7457.950;  218.483; 7103.117;-0.02183
 975.73; 7562.283;  224.817; 7157.450;-0.02465
 976.28; 7654.617;  221.483; 7219.117;-0.02622
 976.83; 7668.950;  221.483; 7315.450;-0.02112
 977.38; 7727.617;  219.483; 7373.783;-0.02096
 977.93; 7753.617;  222.150; 7387.450;-0.02165
 978.48; 7752.617;  228.483; 7365.783;-0.02292
 979.03; 7716.283;  234.817; 7358.117;-0.02131
 979.58; 7706.617;  221.483; 7329.117;-0.02247
 980.13; 7714.617;  207.150; 7367.783;-0.02054
 980.68; 7608.950;  186.483; 7310.450;-0.01783
 981.23; 7539.950;  185.817; 7278.117;-0.01574
 981.78; 7492.283;  207.150; 7207.450;-0.01732
 982.33; 7529.283;  219.150; 7257.117;-0.01648
 982.88; 7521.950;  232.483; 7211.783;-0.01888
 983.43; 7461.283;  218.150; 7145.783;-0.01934
 983.98; 7372.283;  215.150; 6984.117;-0.02422
 984.53; 7229.617;  203.817; 6873.450;-0.02259
 985.08; 7208.617;  209.817; 6835.783;-0.02377
 985.63; 7168.283;  211.150; 6787.117;-0.02447
 986.18; 7153.283;  218.817; 6756.783;-0.02557
 986.73; 7059.617;  218.483; 6610.450;-0.02949
 987.27; 6968.283;  227.483; 6521.117;-0.02981
 987.82; 6850.617;  238.483; 6431.783;-0.02842
 988.37; 6764.283;  243.150; 6400.783;-0.02491
 988.92; 6657.950;  234.150; 6351.117;-0.02126
 989.47; 6569.617;  214.483; 6285.117;-0.01989
 990.02; 6489.950;  208.483; 6199.117;-0.02059
 990.57; 6408.617;  208.150; 6083.117;-0.02342
 991.12; 6330.283;  215.150; 6044.450;-0.02079
 991.67; 6217.950;  213.817; 5969.117;-0.01838
 992.22; 6084.283;  200.483; 5915.450;-0.01264
 992.77; 6052.950;  200.150; 5802.450;-0.01900
 993.31; 5962.283;  204.817; 5735.783;-0.01743
 993.86; 5900.617;  230.483; 5683.783;-0.01693
 994.41; 5777.283;  235.150; 5580.117;-0.01573
 994.96; 5656.283;  226.483; 5473.117;-0.01490
 995.51; 5566.617;  218.817; 5377.783;-0.01561
 996.06; 5461.283;  208.483; 5293.783;-0.01407
 996.61; 5393.950;  222.483; 5201.783;-0.01645
 997.15; 5280.283;  236.150; 5083.450;-0.01729
 997.70; 5140.283;  241.150; 4965.117;-0.01581
 998.25; 5043.283;  247.483; 4873.450;-0.01566
 998.80; 4920.617;  248.483; 4740.117;-0.01711
 999.35; 4787.617;  249.483; 4623.450;-0.01600
 999.90; 4608.283;  236.150; 4455.117;-0.01549
1000.44; 4500.283;  224.483; 4340.450;-0.01655
1000.99; 4387.950;  232.483; 4190.783;-0.02111
1001.54; 4267.283;  237.150; 4067.450;-0.02209
1002.09; 4093.283;  231.817; 3939.117;-0.01769
1002.64; 3991.617;  238.483; 3855.450;-0.01605
1003.18; 3883.617;  240.483; 3766.783;-0.01416
1003.73; 3848.950;  238.483; 3661.450;-0.02316
1004.28; 3747.950;  226.817; 3584.450;-0.02065
1004.83; 3645.617;  209.483; 3488.117;-0.02038
1005.38; 3528.617;  210.150; 3420.783;-0.01435
1005.92; 3461.283;  219.150; 3321.783;-0.01910
1006.47; 3414.617;  236.817; 3231.783;-0.02573
1007.02; 3363.617;  235.483; 3140.117;-0.03219
1007.57; 3261.617;  222.817; 3087.450;-0.02563
1008.11; 3146.283;  211.817; 3028.450;-0.01780
1008.66; 3057.950;  205.150; 2973.450;-0.01306
1009.21; 2987.950;  192.483; 2907.783;-0.01264
1009.75; 2959.950;  177.817; 2862.117;-0.01555
1010.30; 2899.617;  170.150; 2793.117;-0.01729
1010.85; 2863.950;  176.817; 2712.783;-0.02515
1011.40; 2816.950;  204.150; 2628.450;-0.03252
1011.94; 2745.283;  221.817; 2545.783;-0.03577
1012.49; 2642.617;  216.483; 2464.450;-0.03312
1013.04; 2526.617;  194.150; 2362.117;-0.03176
1013.58; 2419.950;  184.150; 2325.117;-0.01882
1014.13; 2345.950;  188.483; 2268.117;-0.01596
1014.68; 2295.950;  196.483; 2233.450;-0.01313
1015.23; 2269.950;  203.150; 2181.450;-0.01901
1015.77; 2211.950;  199.817; 2113.117;-0.02187
1016.32; 2181.283;  204.817; 2072.450;-0.02460
1016.87; 2110.283;  209.483; 2012.783;-0.02287
1017.41; 2065.950;  206.817; 1977.450;-0.02118
1017.96; 1991.617;  194.817; 1953.450;-0.00932
1018.50; 1939.950;  186.483; 1926.450;-0.00336
1019.05; 1866.617;  188.483; 1903.450; 0.00943
1019.60; 1815.950;  182.817; 1815.783;-0.00004
1020.14; 1796.617;  196.150; 1752.783;-0.01206
1020.69; 1793.283;  196.150; 1698.117;-0.02668
1021.24; 1730.617;  209.483; 1650.450;-0.02351
1021.78; 1685.950;  188.483; 1620.450;-0.01942
1022.33; 1637.283;  190.150; 1592.450;-0.01367
1022.87; 1625.617;  182.817; 1587.783;-0.01154
1023.42; 1590.617;  198.150; 1567.117;-0.00739
1023.97; 1563.950;  200.150; 1516.117;-0.01551
1024.51; 1533.617;  212.150; 1465.117;-0.02312
1025.06; 1481.950;  200.483; 1401.117;-0.02830
1025.60; 1428.950;  198.817; 1340.783;-0.03230
1026.15; 1373.617;  181.150; 1307.783;-0.02466
1026.70; 1340.950;  185.483; 1284.783;-0.02164
1027.24; 1304.283;  195.483; 1279.783;-0.00970
1027.79; 1308.283;  200.483; 1270.450;-0.01509
1028.33; 1276.950;  197.483; 1252.450;-0.00997
1028.88; 1265.283;  188.817; 1215.450;-0.02059
1029.42; 1222.950;  208.150; 1198.450;-0.01061
1029.97; 1201.283;  197.817; 1156.450;-0.01985
1030.51; 1185.283;  190.150; 1127.117;-0.02616
1031.06; 1157.617;  182.817; 1088.783;-0.03180
1031.61; 1125.950;  192.483; 1063.117;-0.03026
1032.15; 1088.283;  210.150; 1050.450;-0.01913
1032.70; 1064.950;  202.817; 1024.117;-0.02107
1033.24; 1046.283;  206.483; 1018.117;-0.01482
1033.79; 1054.283;  200.817; 1020.450;-0.01757
1034.33; 1050.283;  199.817; 1016.450;-0.01763
1034.88; 1039.950;  201.817; 1008.783;-0.01646
1035.42; 1002.950;  202.817;  979.450;-0.01295
1035.97;  971.617;  204.483;  950.450;-0.01215
1036.51;  962.950;  206.483;  931.450;-0.01847
1037.06;  954.950;  200.817;  944.117;-0.00628
1037.60;  971.950;  207.150;  948.783;-0.01336
1038.14;  974.283;  204.150;  928.783;-0.02645
1038.69;  969.950;  222.150;  927.783;-0.02521
1039.23;  969.617;  234.483;  935.783;-0.02046
1039.78;  952.950;  235.150;  948.783;-0.00253
1040.32;  948.950;  224.483;  915.783;-0.02035
1040.87;  935.283;  208.483;  887.117;-0.02978
1041.41;  927.617;  198.150;  864.117;-0.03955
1041.96;  927.950;  200.817;  882.783;-0.02785
1042.50;  916.950;  197.817;  893.117;-0.01464
1043.04;  906.950;  213.817;  899.117;-0.00494
1043.59;  905.617;  217.150;  867.450;-0.02477
1044.13;  912.617;  212.483;  869.450;-0.02764
1044.68;  912.283;  205.817;  862.117;-0.03199
1045.22;  896.617;  199.150;  873.783;-0.01446
1045.76;  864.283;  201.817;  869.450; 0.00337
1046.31;  868.950;  193.483;  861.783;-0.00463
1046.85;  866.617;  200.483;  842.117;-0.01627
1047.40;  860.283;  202.483;  813.783;-0.03184
1047.94;  832.950;  215.150;  808.783;-0.01733
1048.48;  818.617;  211.150;  810.117;-0.00612
1049.03;  811.617;  214.483;  793.450;-0.01342
1049.57;  822.617;  229.150;  787.117;-0.02679
1050.11;  814.283;  222.817;  774.117;-0.03054
1050.66;  810.617;  218.483;  779.117;-0.02374
1051.20;  800.617;  206.483;  794.450;-0.00453
1051.74;  779.617;  200.817;  788.117; 0.00633
1052.29;  784.617;  200.150;  780.783;-0.00286
1052.83;  753.283;  199.150;  748.117;-0.00407
1053.37;  768.950;  224.817;  744.783;-0.01973
1053.92;  745.283;  234.150;  739.783;-0.00470
1054.46;  769.950;  236.483;  734.117;-0.03020
1055.00;  772.950;  231.483;  739.117;-0.02802
1055.55;  791.283;  230.817;  738.117;-0.04328
1056.09;  777.950;  223.817;  747.783;-0.02431
1056.63;  740.283;  215.817;  711.783;-0.02427
1057.17;  706.617;  216.483;  709.117; 0.00221
1057.72;  709.283;  225.150;  697.450;-0.01075
1058.26;  713.617;  223.483;  705.783;-0.00700
1058.80;  724.950;  229.817;  700.450;-0.02204
1059.35;  703.617;  230.483;  686.450;-0.01605
1059.89;  691.617;  230.150;  672.450;-0.01842
1060.43;  678.950;  227.817;  654.783;-0.02391
1060.97;  672.283;  223.817;  667.117;-0.00503
1061.52;  678.617;  231.150;  682.450; 0.00370
1062.06;  677.283;  231.483;  671.450;-0.00572
1062.60;  681.283;  236.483;  658.450;-0.02289
1063.14;  668.283;  232.483;  640.783;-0.02831
1063.69;  652.283;  216.483;  640.117;-0.01230
1064.23;  633.617;  208.817;  619.783;-0.01438
1064.77;  629.617;  200.483;  598.450;-0.03275
1065.31;  614.950;  201.817;  577.450;-0.04133
1065.85;  601.617;  206.483;  567.117;-0.03968
1066.40;  597.617;  205.150;  579.450;-0.02058
1066.94;  616.283;  217.817;  579.117;-0.04252
1067.48;  622.950;  209.150;  587.783;-0.03857
1068.02;  620.950;  233.817;  562.450;-0.07115
1068.56;  591.617;  216.817;  564.783;-0.03226
1069.10;  570.950;  212.817;  549.783;-0.02646
1069.65;  556.283;  195.817;  566.450; 0.01208
1070.19;  562.950;  208.817;  566.783; 0.00468
1070.73;  579.950;  223.817;  582.783; 0.00344
1071.27;  583.950;  215.817;  567.117;-0.02033
1071.81;  568.283;  207.150;  562.117;-0.00748
1072.35;  561.617;  201.817;  549.117;-0.01536
1072.90;  542.950;  197.150;  546.783; 0.00479
1073.44;  549.283;  202.817;  540.117;-0.01165
1073.98;  537.950;  206.150;  531.450;-0.00859
1074.52;  543.283;  224.483;  538.783;-0.00617
1075.06;  532.617;  218.483;  542.450; 0.01339
1075.60;  525.950;  207.483;  531.450; 0.00744
1076.14;  528.617;  204.817;  514.117;-0.01990
1076.68;  512.950;  207.150;  504.450;-0.01224
1077.22;  519.617;  225.817;  504.783;-0.02250
1077.76;  502.283;  214.817;  498.117;-0.00634
1078.31;  511.617;  229.817;  499.783;-0.01863
1078.85;  516.950;  226.483;  517.117; 0.00025
1079.39;  524.950;  243.817;  525.450; 0.00077
1079.93;  548.283;  237.817;  507.783;-0.06070
1080.47;  540.283;  227.483;  476.450;-0.09913
1081.01;  547.617;  216.150;  474.783;-0.10776
1081.55;  532.283;  208.483;  488.783;-0.06265
1082.09;  528.283;  205.817;  488.783;-0.05675
1082.63;  518.617;  210.150;  496.450;-0.03239
1083.17;  506.617;  221.150;  500.783;-0.00897
1083.71;  484.950;  228.817;  501.450; 0.02711
1084.25;  464.617;  224.483;  471.117; 0.01160
1084.79;  457.950;  214.483;  446.450;-0.02101
1085.33;  469.950;  202.817;  450.783;-0.03233
1085.87;  483.950;  199.483;  468.450;-0.02433
1086.41;  491.950;  214.483;  471.450;-0.03333
1086.95;  482.950;  222.150;  467.117;-0.02720
1087.49;  475.617;  225.817;  454.783;-0.03782
1088.03;  478.283;  216.817;  454.117;-0.04212
1088.57;  477.950;  219.817;  450.783;-0.04829
1089.11;  483.283;  222.150;  448.117;-0.06282
1089.65;  471.283;  233.150;  458.783;-0.02342
1090.19;  474.283;  238.483;  468.117;-0.01151
1090.73;  462.283;  240.483;  471.783; 0.01821
1091.27;  456.950;  238.817;  466.117; 0.01788
1091.81;  446.950;  238.483;  458.117; 0.02266
1092.35;  445.617;  247.483;  461.450; 0.03339
1092.89;  466.283;  232.150;  457.450;-0.01670
1093.43;  464.950;  223.817;  445.783;-0.03597
1093.97;  460.950;  210.150;  441.117;-0.03578
1094.51;  433.283;  208.483;  440.450; 0.01363
1095.04;  439.283;  218.483;  442.783; 0.00683
1095.58;  450.950;  238.817;  436.783;-0.03002
1096.12;  455.617;  242.817;  428.783;-0.05854
1096.66;  444.950;  239.817;  430.450;-0.03184
1097.20;  429.283;  235.817;  449.450; 0.04306
1097.74;  434.950;  246.817;  456.783; 0.04768
1098.28;  434.950;  235.817;  457.117; 0.04584
1098.82;  437.283;  230.483;  453.117; 0.03204
1099.36;  425.283;  228.150;  446.450; 0.04429
1099.89;  431.950;  230.150;  447.450; 0.03214

