
Integration time [ms]:   0.300
Averaging Nr. [scans]: 1
Smoothing Nr. [pixels]: 1
Data measured with spectrometer [name]: 1906252U1
Wave   ;Sample   ;Dark     ;Reference;Absorbance
[nm]   ;[counts] ;[counts] ;[counts] ;[A.U]

 161.30;  275.762;  271.207;  271.637; 0.00000
 161.90;  262.142;  265.524;  261.712; 0.00000
 162.51;  268.186;  259.038;  260.433;-0.81699
 163.11;  264.594;  265.693;  251.834; 0.00000
 163.71;  283.226;  276.696;  266.803; 0.00000
 164.31;  279.570;  294.270;  273.488; 0.00000
 164.91;  297.497;  288.393;  287.410; 0.00000
 165.52;  275.023;  277.299;  279.261; 5.00000
 166.12;  264.828;  271.979;  273.718; 5.00000
 166.72;  248.201;  272.971;  259.755; 0.00000
 167.32;  253.150;  271.656;  271.040; 0.00000
 167.93;  256.303;  261.266;  267.518; 5.00000
 168.53;  266.410;  254.112;  260.296;-0.29860
 169.13;  271.703;  264.427;  257.261; 0.00000
 169.73;  272.460;  271.677;  266.351; 0.00000
 170.33;  294.951;  291.614;  320.561; 0.93830
 170.94;  297.367;  317.756;  347.746; 5.00000
 171.54;  314.127;  335.278;  387.239; 5.00000
 172.14;  317.753;  338.926;  375.538; 5.00000
 172.74;  337.070;  324.358;  373.181; 0.58438
 173.34;  333.121;  319.589;  355.569; 0.42471
 173.95;  322.144;  309.596;  343.923; 0.43707
 174.55;  320.782;  318.289;  355.228; 1.17068
 175.15;  337.709;  320.689;  367.155; 0.43619
 175.75;  336.088;  322.370;  380.195; 0.62483
 176.35;  340.917;  332.415;  382.036; 0.76614
 176.95;  332.774;  327.740;  392.907; 1.11211
 177.56;  353.220;  327.608;  398.355; 0.44127
 178.16;  335.837;  316.738;  399.298; 0.63576
 178.76;  344.369;  316.306;  398.487; 0.46664
 179.36;  338.901;  310.874;  401.343; 0.50892
 179.96;  355.377;  304.800;  395.813; 0.25515
 180.56;  355.195;  308.938;  392.969; 0.25926
 181.17;  362.329;  318.009;  403.448; 0.28505
 181.77;  360.724;  318.897;  417.181; 0.37102
 182.37;  357.657;  306.653;  404.111; 0.28122
 182.97;  356.335;  319.309;  413.789; 0.40684
 183.57;  374.160;  323.525;  427.944; 0.31433
 184.17;  401.658;  336.736;  473.104; 0.32232
 184.78;  425.477;  316.624;  484.587; 0.18837
 185.38;  437.387;  315.012;  504.833; 0.19065
 185.98;  446.182;  315.783;  504.638; 0.16085
 186.58;  450.323;  316.598;  510.449; 0.16126
 187.18;  450.215;  313.002;  491.678; 0.11467
 187.78;  458.938;  324.256;  526.070; 0.17564
 188.38;  464.028;  331.840;  541.159; 0.19962
 188.98;  484.401;  337.804;  574.199; 0.20751
 189.59;  492.075;  332.575;  567.529; 0.16822
 190.19;  493.935;  326.870;  580.708; 0.18167
 190.79;  492.827;  326.914;  573.939; 0.17286
 191.39;  475.832;  317.159;  564.285; 0.19242
 191.99;  467.918;  322.498;  545.363; 0.18542
 192.59;  459.822;  317.307;  539.929; 0.19371
 193.19;  457.262;  313.765;  525.712; 0.16938
 193.79;  453.160;  325.164;  530.280; 0.20480
 194.39;  436.885;  328.250;  517.658; 0.24143
 195.00;  443.711;  327.216;  511.139; 0.19833
 195.60;  433.298;  305.566;  480.732; 0.13715
 196.20;  426.365;  304.088;  469.473; 0.13115
 196.80;  404.552;  305.278;  453.989; 0.17551
 197.40;  410.076;  313.686;  455.186; 0.16672
 198.00;  402.008;  320.693;  452.457; 0.20963
 198.60;  393.833;  317.270;  442.943; 0.21522
 199.20;  379.077;  312.435;  427.513; 0.23724
 199.80;  366.994;  303.957;  416.753; 0.25270
 200.40;  350.106;  299.492;  396.868; 0.28418
 201.00;  333.998;  293.841;  371.434; 0.28606
 201.60;  321.964;  292.845;  340.403; 0.21305
 202.21;  322.466;  298.995;  352.240; 0.35574
 202.81;  328.117;  303.760;  367.883; 0.42039
 203.41;  336.163;  301.801;  377.921; 0.34542
 204.01;  337.519;  296.447;  373.611; 0.27386
 204.61;  327.712;  287.965;  374.799; 0.33939
 205.21;  328.583;  280.528;  391.328; 0.36280
 205.81;  334.827;  276.000;  394.567; 0.30439
 206.41;  330.255;  281.190;  389.667; 0.34456
 207.01;  323.096;  291.585;  373.516; 0.41499
 207.61;  306.463;  290.832;  349.221; 0.57236
 208.21;  309.667;  294.007;  340.088; 0.46873
 208.81;  312.294;  285.376;  350.048; 0.38068
 209.41;  324.857;  292.971;  355.294; 0.29105
 210.01;  325.720;  286.985;  361.835; 0.28609
 210.61;  322.878;  290.534;  351.990; 0.27877
 211.21;  314.783;  293.399;  356.219; 0.46800
 211.81;  313.169;  300.157;  352.258; 0.60249
 212.41;  314.423;  301.896;  344.513; 0.53172
 213.01;  312.190;  296.332;  351.625; 0.54241
 213.61;  314.902;  285.263;  357.339; 0.38593
 214.21;  311.982;  282.939;  368.411; 0.46879
 214.81;  315.966;  278.704;  361.387; 0.34615
 215.41;  320.226;  282.466;  362.645; 0.32703
 216.01;  318.435;  278.247;  362.189; 0.31988
 216.61;  299.700;  287.920;  357.792; 0.77318
 217.21;  282.292;  290.599;  357.391; 5.00000
 217.81;  292.372;  297.221;  367.800; 5.00000
 218.41;  319.321;  301.628;  379.081; 0.64124
 219.01;  335.405;  307.801;  388.505; 0.46592
 219.61;  321.140;  301.739;  384.906; 0.63214
 220.21;  298.084;  297.568;  378.507; 2.19513
 220.81;  290.961;  283.737;  372.713; 1.09052
 221.41;  304.271;  284.091;  376.024; 0.65854
 222.01;  319.967;  280.426;  372.049; 0.36496
 222.61;  331.028;  298.953;  367.451; 0.32951
 223.21;  341.998;  301.813;  357.103; 0.13859
 223.81;  372.574;  301.952;  360.676;-0.08013
 224.41;  364.538;  281.875;  343.618;-0.12672
 225.01;  329.177;  269.317;  340.250; 0.07371
 225.61;  289.950;  274.108;  341.033; 0.62579
 226.21;  291.824;  273.112;  349.918; 0.61328
 226.81;  306.411;  286.490;  349.175; 0.49786
 227.41;  319.852;  284.059;  344.282; 0.22596
 228.01;  313.819;  302.172;  351.241; 0.62461
 228.61;  321.063;  306.727;  360.474; 0.57390
 229.21;  309.289;  303.825;  362.700; 1.03240
 229.81;  318.040;  308.998;  372.791; 0.84851
 230.41;  313.311;  299.055;  383.396; 0.77204
 231.01;  326.186;  300.808;  405.942; 0.61728
 231.61;  314.672;  287.307;  401.095; 0.61891
 232.21;  328.074;  300.328;  383.489; 0.47672
 232.81;  321.855;  296.307;  370.928; 0.46551
 233.41;  340.923;  302.578;  372.995; 0.26397
 234.00;  335.837;  298.240;  379.918; 0.33695
 234.60;  328.870;  290.487;  363.623; 0.27999
 235.20;  324.842;  295.152;  359.264; 0.33433
 235.80;  318.678;  295.330;  365.432; 0.47748
 236.40;  329.628;  302.765;  379.044; 0.45325
 237.00;  322.067;  303.584;  384.824; 0.64298
 237.60;  332.886;  294.000;  377.651; 0.33268
 238.20;  328.451;  295.121;  389.214; 0.45073
 238.80;  331.249;  274.112;  389.668; 0.30588
 239.40;  337.663;  279.177;  403.402; 0.32716
 240.00;  326.900;  284.599;  402.640; 0.44568
 240.59;  336.559;  298.133;  401.312; 0.42896
 241.19;  328.322;  297.989;  399.745; 0.52565
 241.79;  342.627;  288.710;  384.715; 0.25057
 242.39;  343.492;  292.222;  383.909; 0.25245
 242.99;  340.367;  286.642;  375.121; 0.21666
 243.59;  334.665;  289.230;  388.763; 0.34057
 244.19;  316.468;  286.160;  385.560; 0.51583
 244.79;  321.571;  287.511;  384.652; 0.45515
 245.39;  330.809;  287.293;  395.554; 0.39583
 245.98;  338.041;  273.053;  391.453; 0.26052
 246.58;  327.537;  274.487;  389.290; 0.33527
 247.18;  332.937;  285.342;  384.364; 0.31817
 247.78;  341.006;  295.696;  398.758; 0.35690
 248.38;  351.413;  288.656;  421.162; 0.32457
 248.98;  341.225;  277.356;  419.988; 0.34893
 249.58;  330.575;  265.673;  430.671; 0.40522
 250.17;  329.757;  275.285;  426.842; 0.44440
 250.77;  328.548;  283.143;  431.967; 0.51557
 251.37;  328.327;  286.929;  425.089; 0.52341
 251.97;  324.051;  270.293;  429.805; 0.47235
 252.57;  333.803;  265.298;  436.882; 0.39875
 253.17;  337.418;  272.929;  449.172; 0.43662
 253.77;  333.198;  284.186;  466.282; 0.57000
 254.36;  334.369;  295.474;  468.774; 0.64891
 254.96;  333.493;  295.333;  480.567; 0.68611
 255.56;  331.894;  288.604;  484.301; 0.65519
 256.16;  329.777;  278.462;  506.509; 0.64779
 256.76;  333.376;  277.524;  496.109; 0.59259
 257.36;  349.873;  276.735;  508.603; 0.50110
 257.95;  333.320;  264.992;  503.713; 0.54329
 258.55;  328.020;  264.239;  518.084; 0.59988
 259.15;  324.726;  260.564;  510.454; 0.59047
 259.75;  335.935;  269.345;  523.998; 0.58254
 260.35;  346.898;  267.461;  538.318; 0.53271
 260.94;  330.659;  268.819;  539.764; 0.64161
 261.54;  345.671;  275.530;  547.771; 0.58898
 262.14;  342.006;  279.723;  553.422; 0.64290
 262.74;  364.431;  296.084;  592.169; 0.63670
 263.34;  356.527;  285.302;  604.600; 0.65156
 263.93;  363.799;  271.414;  619.201; 0.57571
 264.53;  362.714;  269.158;  628.783; 0.58478
 265.13;  341.820;  270.950;  628.566; 0.70295
 265.73;  331.391;  275.426;  648.466; 0.82384
 266.33;  332.664;  278.566;  678.397; 0.86870
 266.92;  352.947;  275.029;  689.673; 0.72604
 267.52;  354.331;  279.954;  705.726; 0.75774
 268.12;  345.872;  273.264;  717.281; 0.78642
 268.72;  353.091;  281.951;  749.175; 0.81741
 269.31;  360.085;  293.596;  782.505; 0.86648
 269.91;  363.939;  296.813;  783.686; 0.86053
 270.51;  363.347;  298.884;  823.747; 0.91073
 271.11;  354.958;  296.018;  844.685; 0.96890
 271.70;  357.618;  281.274;  877.686; 0.89277
 272.30;  343.509;  270.568;  887.924; 0.92756
 272.90;  364.335;  264.784;  909.412; 0.81126
 273.50;  367.121;  274.785;  916.521; 0.84198
 274.09;  378.132;  285.359;  947.539; 0.85355
 274.69;  368.271;  293.425;  961.690; 0.95078
 275.29;  372.961;  297.126; 1011.041; 0.97377
 275.89;  377.105;  301.162; 1057.168; 0.99804
 276.48;  386.982;  306.441; 1108.365; 0.99812
 277.08;  380.622;  303.217; 1149.330; 1.03866
 277.68;  389.214;  300.562; 1156.928; 0.98497
 278.28;  382.687;  297.934; 1188.748; 1.02163
 278.87;  409.483;  305.120; 1219.213; 0.94244
 279.47;  429.965;  316.402; 1279.019; 0.92822
 280.07;  444.485;  311.564; 1306.537; 0.87422
 280.66;  448.083;  305.599; 1329.806; 0.85662
 281.26;  447.552;  299.502; 1356.605; 0.85371
 281.86;  467.745;  299.353; 1408.460; 0.81865
 282.46;  460.948;  289.111; 1464.667; 0.83513
 283.05;  478.130;  270.001; 1525.842; 0.78060
 283.65;  482.870;  269.267; 1577.248; 0.78699
 284.25;  499.968;  276.537; 1628.707; 0.78189
 284.84;  510.401;  297.639; 1660.819; 0.80666
 285.44;  534.946;  304.585; 1722.349; 0.78920
 286.04;  557.234;  306.626; 1767.304; 0.76556
 286.63;  567.470;  299.604; 1827.551; 0.75619
 287.23;  573.504;  285.934; 1878.582; 0.74338
 287.83;  600.234;  285.987; 1956.635; 0.72561
 288.42;  615.066;  282.947; 2012.456; 0.71663
 289.02;  653.958;  281.018; 2081.351; 0.68371
 289.62;  645.295;  274.153; 2105.373; 0.69320
 290.21;  671.137;  278.965; 2173.882; 0.68411
 290.81;  681.432;  296.139; 2171.832; 0.68737
 291.41;  727.212;  301.675; 2217.279; 0.65337
 292.00;  740.189;  287.695; 2273.257; 0.64227
 292.60;  766.179;  266.816; 2355.570; 0.62147
 293.20;  778.557;  269.053; 2441.953; 0.62989
 293.79;  807.131;  275.331; 2498.541; 0.62123
 294.39;  814.379;  284.326; 2544.463; 0.62982
 294.99;  844.018;  280.435; 2588.095; 0.61221
 295.58;  866.562;  284.687; 2619.961; 0.60351
 296.18;  891.506;  271.100; 2672.236; 0.58774
 296.78;  920.461;  267.474; 2741.524; 0.57850
 297.37;  960.844;  256.039; 2819.912; 0.56083
 297.97; 1002.042;  255.858; 2927.442; 0.55392
 298.57; 1039.822;  262.727; 2989.557; 0.54518
 299.16; 1075.707;  278.359; 3083.789; 0.54635
 299.76; 1089.283;  281.775; 3176.366; 0.55444
 300.35; 1126.290;  281.214; 3269.362; 0.54851
 300.95; 1140.719;  278.404; 3324.462; 0.54807
 301.55; 1204.090;  287.229; 3346.846; 0.52336
 302.14; 1209.603;  278.314; 3431.366; 0.52965
 302.74; 1256.101;  277.164; 3537.862; 0.52256
 303.33; 1298.819;  277.506; 3665.575; 0.52079
 303.93; 1364.524;  284.053; 3763.621; 0.50791
 304.53; 1406.309;  290.889; 3809.743; 0.49896
 305.12; 1434.644;  285.666; 3889.067; 0.49640
 305.72; 1478.994;  304.345; 3962.749; 0.49338
 306.31; 1513.400;  292.556; 4062.826; 0.48971
 306.91; 1545.813;  290.122; 4183.574; 0.49145
 307.51; 1611.310;  280.000; 4278.734; 0.47764
 308.10; 1659.294;  295.710; 4394.048; 0.47793
 308.70; 1705.981;  291.190; 4468.751; 0.47023
 309.29; 1719.041;  287.634; 4547.826; 0.47367
 309.89; 1753.568;  264.902; 4638.675; 0.46806
 310.48; 1811.333;  273.673; 4739.754; 0.46307
 311.08; 1893.361;  268.620; 4876.118; 0.45268
 311.68; 1946.614;  273.221; 4959.384; 0.44722
 312.27; 2007.179;  278.703; 5074.278; 0.44318
 312.87; 2038.756;  271.869; 5225.848; 0.44775
 313.46; 2117.587;  276.691; 5385.013; 0.44325
 314.06; 2188.130;  276.193; 5529.885; 0.43899
 314.65; 2228.808;  282.238; 5632.559; 0.43911
 315.25; 2292.843;  283.262; 5774.255; 0.43655
 315.85; 2324.798;  277.637; 5914.876; 0.43991
 316.44; 2377.193;  287.913; 6071.938; 0.44223
 317.04; 2426.911;  295.255; 6216.984; 0.44373
 317.63; 2519.927;  310.823; 6400.341; 0.44037
 318.23; 2620.536;  298.737; 6546.296; 0.42989
 318.82; 2665.463;  293.221; 6674.883; 0.42977
 319.42; 2706.131;  273.276; 6781.545; 0.42735
 320.01; 2771.553;  280.055; 6929.646; 0.42633
 320.61; 2872.905;  290.511; 7164.652; 0.42520
 321.20; 2946.213;  285.758; 7272.939; 0.41935
 321.80; 2987.313;  292.860; 7497.718; 0.42715
 322.39; 3040.445;  275.154; 7636.540; 0.42522
 322.99; 3107.123;  275.755; 7857.556; 0.42778
 323.58; 3194.447;  286.597; 7977.531; 0.42241
 324.18; 3258.601;  287.901; 8124.673; 0.42128
 324.77; 3321.600;  292.485; 8318.013; 0.42316
 325.37; 3434.085;  278.984; 8442.167; 0.41285
 325.96; 3527.216;  276.253; 8588.958; 0.40773
 326.56; 3629.018;  298.768; 8771.095; 0.40553
 327.15; 3675.696;  300.036; 8947.778; 0.40854
 327.75; 3728.786;  300.925; 9129.536; 0.41087
 328.34; 3826.431;  272.723; 9291.838; 0.40448
 328.94; 3893.506;  266.072; 9447.905; 0.40333
 329.53; 4023.811;  277.765; 9658.876; 0.39868
 330.13; 4049.053;  293.098; 9872.460; 0.40662
 330.72; 4101.479;  297.428;10112.576; 0.41165
 331.32; 4153.308;  296.807;10347.750; 0.41601
 331.91; 4279.288;  286.021;10578.045; 0.41117
 332.51; 4365.358;  290.846;10832.428; 0.41283
 333.10; 4460.285;  280.941;11112.686; 0.41359
 333.69; 4548.799;  268.720;11343.870; 0.41290
 334.29; 4616.229;  259.020;11372.294; 0.40663
 334.88; 4588.496;  263.526;11404.218; 0.41093
 335.48; 4597.116;  274.151;11347.513; 0.40850
 336.07; 4618.644;  277.361;11521.065; 0.41329
 336.67; 4688.354;  271.793;11561.792; 0.40761
 337.26; 4717.302;  270.478;11724.744; 0.41092
 337.86; 4805.649;  274.661;11795.073; 0.40528
 338.45; 4874.466;  285.081;11996.201; 0.40684
 339.04; 4932.980;  280.248;12122.714; 0.40573
 339.64; 4981.768;  279.247;12324.855; 0.40850
 340.23; 5019.143;  276.541;12444.594; 0.40920
 340.83; 5096.550;  283.446;12579.002; 0.40732
 341.42; 5100.000;  284.034;12728.085; 0.41228
 342.02; 5164.973;  280.810;12860.717; 0.41089
 342.61; 5179.065;  285.029;12994.842; 0.41447
 343.20; 5317.238;  280.703;13173.363; 0.40821
 343.80; 5371.070;  275.024;13326.514; 0.40843
 344.39; 5464.676;  277.525;13574.777; 0.40883
 344.99; 5473.151;  284.701;13698.586; 0.41252
 345.58; 5511.896;  281.629;13941.331; 0.41692
 346.17; 5552.847;  272.425;14086.941; 0.41767
 346.77; 5617.079;  263.601;14425.499; 0.42249
 347.36; 5726.656;  267.766;14640.403; 0.42043
 347.96; 5799.996;  271.456;14918.073; 0.42313
 348.55; 5930.995;  272.039;15018.413; 0.41595
 349.14; 5987.175;  269.152;15148.264; 0.41533
 349.74; 6085.888;  282.193;15379.635; 0.41520
 350.33; 6149.538;  292.264;15619.281; 0.41776
 350.92; 6252.339;  292.029;15990.758; 0.42060
 351.52; 6354.626;  276.988;16197.719; 0.41823
 352.11; 6420.609;  277.642;16449.038; 0.42037
 352.70; 6474.039;  293.221;16652.467; 0.42272
 353.30; 6522.265;  299.069;16923.354; 0.42673
 353.89; 6605.734;  289.556;17199.826; 0.42770
 354.49; 6743.360;  295.537;17471.125; 0.42550
 355.08; 6842.479;  303.789;17648.240; 0.42367
 355.67; 6897.451;  306.509;17850.877; 0.42519
 356.27; 6958.994;  292.678;18013.082; 0.42459
 356.86; 7022.960;  288.376;18230.048; 0.42555
 357.45; 7152.243;  297.756;18507.331; 0.42432
 358.05; 7288.532;  297.214;18684.613; 0.41996
 358.64; 7417.549;  292.504;18894.298; 0.41677
 359.23; 7512.407;  289.300;19081.825; 0.41526
 359.83; 7574.300;  289.121;19433.380; 0.41960
 360.42; 7651.514;  293.174;19722.600; 0.42168
 361.01; 7693.408;  287.355;19981.487; 0.42475
 361.61; 7707.128;  287.502;20183.522; 0.42838
 362.20; 7759.326;  294.987;20496.718; 0.43240
 362.79; 7847.894;  302.910;20634.303; 0.43051
 363.38; 7926.430;  301.613;20815.514; 0.42982
 363.98; 7985.640;  289.171;20943.715; 0.42872
 364.57; 8049.408;  277.744;21176.149; 0.42960
 365.16; 8124.745;  288.573;21351.502; 0.42941
 365.76; 8210.524;  293.720;21537.287; 0.42868
 366.35; 8257.458;  294.920;21731.542; 0.43010
 366.94; 8360.719;  286.459;21913.791; 0.42790
 367.53; 8380.058;  286.426;22067.466; 0.42994
 368.13; 8481.074;  291.994;22246.489; 0.42829
 368.72; 8453.876;  285.482;22413.295; 0.43280
 369.31; 8554.275;  292.281;22597.374; 0.43132
 369.91; 8577.438;  283.382;22746.877; 0.43271
 370.50; 8718.305;  291.699;22820.059; 0.42708
 371.09; 8788.838;  278.017;22946.909; 0.42546
 371.68; 8869.257;  286.967;23106.324; 0.42470
 372.28; 8949.510;  294.984;23340.584; 0.42534
 372.87; 9027.092;  297.367;23443.502; 0.42348
 373.46; 9089.189;  297.723;23614.255; 0.42360
 374.05; 9126.100;  287.889;23758.158; 0.42415
 374.65; 9128.104;  290.440;23950.173; 0.42767
 375.24; 9187.279;  272.918;24146.349; 0.42782
 375.83; 9253.629;  275.848;24331.370; 0.42805
 376.42; 9325.474;  273.516;24515.563; 0.42783
 377.02; 9442.079;  293.907;24527.502; 0.42308
 377.61; 9521.582;  288.112;24762.668; 0.42335
 378.20; 9563.041;  297.747;24944.118; 0.42489
 378.79; 9617.476;  297.015;25086.217; 0.42483
 379.38; 9638.042;  282.191;25204.109; 0.42550
 379.98; 9794.744;  267.243;25344.469; 0.42030
 380.57; 9864.007;  272.112;25606.751; 0.42181
 381.16; 9983.039;  291.609;25727.129; 0.41905
 381.75;10011.395;  289.589;25767.151; 0.41841
 382.35;10089.846;  283.703;25937.612; 0.41766
 382.94;10197.936;  271.231;26182.039; 0.41668
 383.53;10347.659;  279.541;26558.760; 0.41666
 384.12;10431.870;  269.432;26865.627; 0.41782
 384.71;10502.932;  284.069;27028.687; 0.41783
 385.31;10631.122;  287.699;27353.893; 0.41776
 385.90;10816.330;  299.731;27598.110; 0.41426
 386.49;10979.885;  283.306;27919.987; 0.41224
 387.08;11090.508;  296.763;28085.602; 0.41070
 387.67;11205.835;  302.047;28384.267; 0.41085
 388.26;11337.986;  312.463;28670.094; 0.41027
 388.86;11461.333;  297.866;29041.131; 0.41074
 389.45;11542.165;  285.685;29324.329; 0.41157
 390.04;11626.337;  279.860;29566.863; 0.41181
 390.63;11722.465;  284.795;29878.048; 0.41286
 391.22;11889.837;  294.422;30097.179; 0.40997
 391.81;12094.332;  303.408;30368.117; 0.40651
 392.41;12260.721;  324.211;30517.642; 0.40304
 393.00;12340.192;  349.022;30747.606; 0.40399
 393.59;12430.955;  379.676;31111.212; 0.40655
 394.18;12580.739;  399.780;31505.223; 0.40715
 394.77;12779.839;  433.703;31930.599; 0.40674
 395.36;13008.285;  473.557;32244.356; 0.40391
 395.95;13126.949;  524.323;32561.017; 0.40519
 396.55;13308.695;  566.236;32856.406; 0.40382
 397.14;13405.400;  594.577;33298.717; 0.40703
 397.73;13614.433;  601.786;33627.642; 0.40449
 398.32;13737.053;  612.294;34204.404; 0.40815
 398.91;13997.936;  621.039;34614.988; 0.40505
 399.50;14273.737;  632.059;35200.379; 0.40381
 400.09;14582.165;  605.452;35675.306; 0.39953
 400.68;14888.197;  582.293;36366.134; 0.39817
 401.27;15096.944;  548.561;37014.694; 0.39907
 401.87;15338.058;  525.771;37604.957; 0.39851
 402.46;15631.485;  501.053;38119.893; 0.39555
 403.05;15946.274;  484.389;38675.942; 0.39270
 403.64;16292.464;  490.521;39240.769; 0.38956
 404.23;16583.468;  484.797;39841.080; 0.38822
 404.82;16875.090;  502.588;40438.695; 0.38725
 405.41;17175.228;  491.629;41140.816; 0.38676
 406.00;17434.764;  497.890;41752.976; 0.38664
 406.59;17721.320;  479.966;42383.807; 0.38568
 407.18;17875.941;  482.149;42943.385; 0.38760
 407.77;17978.930;  466.520;43500.038; 0.39046
 408.37;18168.221;  484.641;43973.019; 0.39080
 408.96;18472.737;  491.806;44465.898; 0.38838
 409.55;18726.461;  504.476;44970.283; 0.38743
 410.14;18940.663;  481.626;45459.452; 0.38679
 410.73;19149.686;  490.299;45905.805; 0.38631
 411.32;19422.292;  492.855;46441.730; 0.38514
 411.91;19667.811;  505.687;47060.216; 0.38552
 412.50;19878.914;  480.732;47624.639; 0.38566
 413.09;20095.375;  484.505;48110.411; 0.38535
 413.68;20241.568;  482.467;48573.257; 0.38629
 414.27;20376.229;  487.472;48936.919; 0.38668
 414.86;20539.626;  462.470;49236.309; 0.38548
 415.45;20812.080;  452.555;49687.411; 0.38351
 416.04;20983.088;  462.743;50083.734; 0.38348
 416.63;21238.297;  468.551;50542.275; 0.38218
 417.22;21277.044;  461.867;50754.683; 0.38313
 417.81;21418.181;  462.159;51068.477; 0.38290
 418.40;21511.385;  476.694;51393.675; 0.38393
 418.99;21716.903;  477.832;51737.830; 0.38264
 419.58;21860.816;  462.218;51969.382; 0.38148
 420.17;22026.167;  452.952;52248.392; 0.38038
 420.76;22102.620;  458.593;52499.836; 0.38101
 421.35;22243.219;  472.988;53005.769; 0.38257
 421.94;22107.621;  474.287;53203.501; 0.38693
 422.53;22124.763;  469.601;53402.299; 0.38816
 423.12;22146.302;  471.552;53493.823; 0.38850
 423.71;22267.022;  463.366;53670.857; 0.38744
 424.30;22295.371;  471.573;53819.883; 0.38819
 424.89;22214.177;  477.611;53888.037; 0.39044
 425.48;22152.519;  477.854;53974.356; 0.39237
 426.07;22156.884;  465.438;53940.695; 0.39186
 426.66;22204.377;  460.097;54040.507; 0.39166
 427.25;22167.984;  453.014;53995.096; 0.39194
 427.84;22106.280;  450.549;53912.043; 0.39247
 428.43;21987.014;  452.848;53711.442; 0.39326
 429.02;21936.128;  457.772;53797.552; 0.39505
 429.61;21860.034;  448.720;53826.107; 0.39671
 430.20;21857.380;  425.820;53758.443; 0.39594
 430.79;21737.849;  437.001;53531.580; 0.39665
 431.38;21606.489;  442.471;53315.543; 0.39764
 431.97;21328.728;  451.391;53001.434; 0.40090
 432.55;21188.971;  445.807;52690.011; 0.40116
 433.14;20971.038;  441.412;52704.411; 0.40581
 433.73;20781.369;  432.971;52655.054; 0.40932
 434.32;20637.597;  424.624;52606.263; 0.41189
 434.91;20506.739;  423.161;52233.737; 0.41158
 435.50;20400.875;  418.064;51971.869; 0.41160
 436.09;20147.656;  418.432;51687.970; 0.41475
 436.68;19944.336;  422.559;51624.303; 0.41877
 437.27;19724.835;  439.214;51661.122; 0.42422
 437.86;19602.955;  433.576;51508.561; 0.42560
 438.45;19479.051;  436.794;51330.326; 0.42694
 439.04;19407.028;  419.148;51043.637; 0.42588
 439.62;19260.042;  412.025;51000.963; 0.42879
 440.21;19045.468;  413.441;50885.373; 0.43279
 440.80;18829.298;  430.263;51024.538; 0.43931
 441.39;18698.247;  449.560;51081.161; 0.44319
 441.98;18540.389;  447.874;51020.625; 0.44642
 442.57;18463.008;  436.530;50797.219; 0.44618
 443.16;18318.717;  425.660;50702.578; 0.44868
 443.75;18227.397;  431.481;50788.909; 0.45174
 444.33;18059.871;  435.018;50969.383; 0.45746
 444.92;17914.504;  440.355;50892.685; 0.46049
 445.51;17793.162;  417.614;50850.986; 0.46278
 446.10;17693.408;  410.612;51056.876; 0.46693
 446.69;17601.421;  404.712;51275.545; 0.47102
 447.28;17558.941;  420.929;51457.726; 0.47392
 447.87;17343.270;  412.657;51329.383; 0.47819
 448.45;17217.643;  413.036;51412.748; 0.48214
 449.04;17027.882;  390.874;51445.980; 0.48696
 449.63;17031.532;  386.972;51646.289; 0.48850
 450.22;16945.047;  381.501;51835.467; 0.49227
 450.81;16873.132;  386.090;52100.884; 0.49647
 451.40;16731.716;  391.666;52058.120; 0.49996
 451.98;16618.012;  398.229;52052.065; 0.50306
 452.57;16519.752;  403.856;52211.469; 0.50714
 453.16;16453.972;  401.626;52273.023; 0.50939
 453.75;16333.329;  391.994;52359.708; 0.51321
 454.34;16210.647;  388.814;52215.013; 0.51529
 454.93;16126.677;  395.232;52494.699; 0.52006
 455.51;15968.537;  391.805;52615.216; 0.52539
 456.10;15834.108;  402.670;52907.445; 0.53179
 456.69;15678.047;  396.116;53041.712; 0.53718
 457.28;15678.539;  403.304;53288.203; 0.53934
 457.87;15597.342;  395.902;53216.666; 0.54092
 458.45;15472.057;  396.108;53304.691; 0.54524
 459.04;15277.760;  388.965;53401.373; 0.55152
 459.63;15113.875;  395.666;53676.141; 0.55871
 460.22;15073.203;  396.420;53639.128; 0.55963
 460.80;15043.219;  400.600;53692.823; 0.56105
 461.39;15146.619;  392.483;53895.895; 0.55947
 461.98;15151.192;  393.792;54364.115; 0.56315
 462.57;15137.376;  398.874;54782.941; 0.56702
 463.16;15050.056;  397.668;55197.607; 0.57287
 463.74;14959.327;  387.726;55673.212; 0.57910
 464.33;14924.552;  376.102;56213.777; 0.58411
 464.92;14931.501;  370.427;56547.398; 0.58636
 465.51;14909.484;  357.831;56911.710; 0.58955
 466.09;14912.018;  358.204;57352.888; 0.59286
 466.68;14858.586;  361.518;57898.436; 0.59867
 467.27;14915.123;  372.331;58292.638; 0.60018
 467.86;14912.219;  368.243;58560.733; 0.60218
 468.44;15010.745;  363.094;58919.922; 0.60181
 469.03;15008.310;  361.882;59322.152; 0.60483
 469.62;15018.877;  367.807;59788.037; 0.60807
 470.20;14950.856;  365.300;60231.337; 0.61326
 470.79;14953.714;  374.762;60677.863; 0.61661
 471.38;14978.353;  358.816;61146.166; 0.61888
 471.97;15125.586;  359.020;61564.389; 0.61751
 472.55;15084.547;  350.111;61933.679; 0.62113
 473.14;15105.808;  362.234;62406.602; 0.62410
 473.73;14938.759;  355.473;62971.535; 0.63283
 474.31;15001.022;  347.428;63489.444; 0.63437
 474.90;14987.498;  350.797;63899.238; 0.63766
 475.49;15072.170;  352.737;64160.914; 0.63699
 476.07;15102.903;  357.870;64473.326; 0.63832
 476.66;15146.092;  347.892;64752.829; 0.63871
 477.25;15216.281;  340.581;65000.332; 0.63816
 477.84;15208.812;  352.761;65155.193; 0.63969
 478.42;15213.570;  344.733;65155.945; 0.63937
 479.01;15093.960;  344.681;65156.001; 0.64288
 479.60;14986.141;  330.210;65156.511; 0.64574
 480.18;14956.233;  334.265;65158.257; 0.64673
 480.77;14884.800;  342.135;65159.480; 0.64905
 481.35;14888.025;  347.900;65159.373; 0.64908
 481.94;14775.506;  344.738;65159.188; 0.65238
 482.53;14819.246;  335.059;65159.923; 0.65085
 483.11;14805.705;  332.000;65160.709; 0.65119
 483.70;14773.056;  318.067;65161.719; 0.65185
 484.29;14703.674;  316.585;65163.324; 0.65392
 484.87;14640.567;  306.461;65164.542; 0.65559
 485.46;14588.296;  315.710;65164.272; 0.65740
 486.05;14524.600;  319.958;65162.920; 0.65943
 486.63;14471.266;  321.237;65162.258; 0.66109
 487.22;14335.255;  317.302;65162.909; 0.66520
 487.81;14278.392;  323.288;65164.368; 0.66712
 488.39;14205.166;  331.856;65164.474; 0.66961
 488.98;14123.086;  337.207;65163.733; 0.67232
 489.56;13958.489;  317.228;65164.794; 0.67704
 490.15;13767.078;  310.772;65166.371; 0.68302
 490.74;13654.503;  302.771;65167.454; 0.68647
 491.32;13545.171;  305.937;65168.774; 0.69013
 491.91;13414.800;  316.111;64974.057; 0.69339
 492.49;13264.054;  317.823;64712.314; 0.69671
 493.08;13050.200;  332.939;64167.133; 0.70066
 493.67;12922.284;  325.500;63724.219; 0.70182
 494.25;12740.584;  343.920;63105.848; 0.70439
 494.84;12529.161;  335.724;62474.087; 0.70723
 495.42;12364.167;  338.386;61959.759; 0.70962
 496.01;12217.727;  319.873;61399.648; 0.71043
 496.59;12126.863;  310.443;60754.114; 0.70886
 497.18;12015.230;  311.106;60078.479; 0.70813
 497.77;11876.729;  311.733;59331.632; 0.70785
 498.35;11720.566;  326.966;58841.796; 0.71060
 498.94;11550.650;  324.499;58030.218; 0.71099
 499.52;11422.289;  324.914;57567.186; 0.71250
 500.11;11331.048;  311.275;56906.600; 0.71061
 500.69;11175.358;  304.601;56449.246; 0.71305
 501.28;11113.488;  315.149;55764.708; 0.71054
 501.86;11022.576;  317.653;55155.772; 0.70950
 502.45;10939.850;  338.264;54632.693; 0.70938
 503.03;10882.477;  328.939;54106.656; 0.70720
 503.62;10826.565;  339.385;53665.090; 0.70628
 504.20;10780.781;  326.215;53123.968; 0.70331
 504.79;10667.968;  326.766;52666.148; 0.70426
 505.37;10614.350;  326.582;52358.543; 0.70395
 505.96;10624.903;  332.269;51859.105; 0.69951
 506.55;10706.640;  327.706;51491.158; 0.69281
 507.13;10727.893;  315.837;51254.709; 0.68951
 507.72;10775.917;  312.954;51138.387; 0.68643
 508.30;10847.153;  319.265;50944.634; 0.68203
 508.89;10999.667;  316.460;50626.145; 0.67295
 509.47;11164.917;  308.593;50383.056; 0.66393
 510.05;11247.735;  311.037;50305.214; 0.66003
 510.64;11360.723;  312.992;50205.541; 0.65476
 511.22;11433.332;  326.961;50242.492; 0.65266
 511.81;11605.693;  323.186;50282.527; 0.64621
 512.39;11834.444;  329.747;50266.280; 0.63754
 512.98;11996.281;  310.647;50213.110; 0.63047
 513.56;12172.136;  306.947;50200.284; 0.62377
 514.15;12353.035;  297.484;50225.841; 0.61716
 514.73;12630.199;  293.306;50310.339; 0.60791
 515.32;12913.238;  298.909;50412.714; 0.59909
 515.90;13085.996;  306.909;50529.464; 0.59440
 516.49;13259.139;  321.223;50576.262; 0.58932
 517.07;13377.021;  323.415;50501.804; 0.58479
 517.66;13599.175;  325.663;50468.951; 0.57723
 518.24;13753.333;  330.491;50581.443; 0.57330
 518.82;13993.005;  322.791;50433.118; 0.56415
 519.41;14248.469;  321.449;50483.238; 0.55651
 519.99;14572.522;  304.901;50520.942; 0.54649
 520.58;14875.099;  313.039;50964.514; 0.54137
 521.16;15145.108;  316.114;51139.212; 0.53495
 521.75;15486.720;  315.579;51354.849; 0.52689
 522.33;15830.050;  314.722;51552.832; 0.51883
 522.91;16177.351;  303.280;51724.449; 0.51045
 523.50;16483.996;  304.661;51708.091; 0.50203
 524.08;16787.098;  292.957;51816.521; 0.49468
 524.67;17106.076;  296.699;52029.160; 0.48821
 525.25;17431.557;  294.898;52244.306; 0.48165
 525.83;17694.263;  300.195;52281.679; 0.47545
 526.42;17916.908;  299.604;52255.985; 0.46970
 527.00;18136.570;  297.414;52315.968; 0.46478
 527.59;18426.667;  293.742;52194.390; 0.45670
 528.17;18725.741;  296.702;52169.461; 0.44944
 528.75;19024.064;  314.407;52237.781; 0.44330
 529.34;19270.154;  317.963;52410.206; 0.43911
 529.92;19500.645;  322.096;52599.701; 0.43550
 530.50;19635.035;  308.099;52577.086; 0.43208
 531.09;19899.872;  310.277;52580.588; 0.42623
 531.67;20307.017;  319.699;52493.409; 0.41670
 532.25;20669.900;  331.224;52474.618; 0.40888
 532.84;20899.037;  319.265;52286.406; 0.40229
 533.42;20974.755;  303.579;52069.121; 0.39868
 534.00;21127.246;  296.379;51800.283; 0.39313
 534.59;21253.319;  306.923;51692.027; 0.38973
 535.17;21371.925;  307.396;51484.292; 0.38552
 535.75;21518.661;  311.833;51399.345; 0.38184
 536.34;21723.960;  327.170;51106.314; 0.37534
 536.92;21971.993;  323.362;50970.357; 0.36912
 537.50;22089.672;  320.767;50555.361; 0.36317
 538.09;22155.921;  304.234;50224.272; 0.35879
 538.67;22166.009;  307.957;49849.711; 0.35536
 539.25;22310.533;  292.004;49517.578; 0.34940
 539.84;22474.062;  298.382;49195.084; 0.34340
 540.42;22548.076;  287.620;48747.408; 0.33785
 541.00;22601.612;  304.712;48328.615; 0.33321
 541.59;22611.470;  293.453;47996.146; 0.32989
 542.17;22679.974;  303.713;47681.974; 0.32579
 542.75;22798.761;  301.687;47449.085; 0.32133
 543.33;22890.104;  321.928;47035.436; 0.31595
 543.92;22953.798;  322.791;46647.473; 0.31111
 544.50;22992.329;  319.637;46212.001; 0.30624
 545.08;23094.404;  303.653;45900.067; 0.30117
 545.67;23200.862;  304.594;45544.519; 0.29576
 546.25;23276.608;  306.855;45243.598; 0.29145
 546.83;23278.569;  305.919;44881.223; 0.28788
 547.41;23393.642;  307.185;44485.963; 0.28186
 548.00;23481.094;  304.048;44073.416; 0.27611
 548.58;23535.361;  293.554;43651.340; 0.27080
 549.16;23503.660;  273.252;43462.973; 0.26932
 549.74;23504.694;  276.221;43125.006; 0.26592
 550.33;23575.719;  287.338;42789.017; 0.26127
 550.91;23705.176;  287.502;42328.145; 0.25413
 551.49;23789.750;  275.114;42084.067; 0.24993
 552.07;24001.027;  281.527;41894.675; 0.24413
 552.66;24096.610;  296.715;41696.915; 0.24043
 553.24;24103.165;  301.874;41407.799; 0.23730
 553.82;24116.098;  287.046;41262.389; 0.23542
 554.40;24261.359;  287.502;41018.645; 0.23019
 554.98;24414.900;  286.839;40927.197; 0.22644
 555.57;24565.469;  295.511;40724.442; 0.22162
 556.15;24664.888;  295.794;40729.857; 0.21991
 556.73;24928.228;  289.872;40584.856; 0.21364
 557.31;25059.478;  280.087;40487.094; 0.21021
 557.89;25058.953;  267.680;40402.230; 0.20922
 558.48;25085.207;  270.725;40389.487; 0.20864
 559.06;25246.693;  269.279;40492.969; 0.20693
 559.64;25552.749;  288.172;40421.363; 0.20099
 560.22;25796.211;  308.276;40298.501; 0.19562
 560.80;25945.817;  311.749;40155.433; 0.19154
 561.39;26142.203;  300.174;40123.139; 0.18781
 561.97;26326.537;  304.256;40118.465; 0.18469
 562.55;26566.662;  305.864;40159.584; 0.18116
 563.13;26842.561;  307.652;40244.814; 0.17756
 563.71;27117.073;  295.320;40343.674; 0.17410
 564.29;27387.562;  296.315;40286.513; 0.16912
 564.88;27487.094;  280.495;40218.374; 0.16671
 565.46;27572.836;  277.260;40267.767; 0.16586
 566.04;27636.644;  269.464;40338.574; 0.16558
 566.62;27923.519;  292.162;40520.457; 0.16313
 567.20;28167.739;  292.265;40647.678; 0.16068
 567.78;28373.145;  300.170;40851.754; 0.15972
 568.36;28577.812;  300.837;41002.754; 0.15818
 568.94;28727.587;  296.460;41004.189; 0.15588
 569.53;28991.926;  295.816;41099.192; 0.15287
 570.11;29141.893;  283.902;41113.488; 0.15071
 570.69;29483.656;  278.869;41248.245; 0.14701
 571.27;29608.007;  279.854;41227.262; 0.14494
 571.85;29645.634;  279.584;41295.220; 0.14510
 572.43;29802.308;  299.078;41479.213; 0.14482
 573.01;29966.965;  288.199;41566.526; 0.14328
 573.59;30209.105;  284.931;41522.011; 0.13927
 574.17;30294.390;  270.419;41423.650; 0.13694
 574.76;30581.823;  278.826;41529.098; 0.13394
 575.34;30852.388;  274.920;41725.997; 0.13213
 575.92;31089.248;  271.771;41808.186; 0.12963
 576.50;31256.897;  265.398;41828.507; 0.12747
 577.08;31339.772;  261.206;41866.048; 0.12668
 577.66;31458.425;  250.776;41875.013; 0.12509
 578.24;31647.912;  252.747;41879.155; 0.12251
 578.82;31916.335;  257.942;41897.583; 0.11902
 579.40;32035.962;  266.978;41903.210; 0.11747
 579.98;32158.714;  273.567;41841.961; 0.11517
 580.56;32189.070;  281.852;41853.319; 0.11491
 581.14;32424.250;  291.659;41917.834; 0.11242
 581.72;32639.330;  280.280;42082.244; 0.11120
 582.30;32842.896;  273.151;42074.467; 0.10838
 582.88;32938.048;  274.650;42152.288; 0.10792
 583.46;33000.239;  282.363;42189.821; 0.10751
 584.04;33215.865;  282.956;42171.457; 0.10446
 584.62;33418.225;  265.125;42197.830; 0.10203
 585.21;33493.497;  267.265;42241.428; 0.10150
 585.79;33535.419;  273.754;42392.009; 0.10253
 586.37;33574.385;  277.118;42415.309; 0.10227
 586.95;33699.885;  275.522;42455.787; 0.10105
 587.53;33795.932;  269.979;42469.819; 0.09993
 588.11;34054.366;  278.442;42585.262; 0.09780
 588.69;34258.624;  282.733;42557.865; 0.09491
 589.27;34393.234;  283.424;42506.477; 0.09267
 589.85;34412.698;  276.026;42443.602; 0.09176
 590.43;34570.038;  271.715;42599.939; 0.09136
 591.01;34675.613;  278.076;42722.853; 0.09130
 591.59;34815.037;  288.299;42936.945; 0.09175
 592.16;34840.749;  287.924;42891.657; 0.09096
 592.74;35051.145;  291.617;42886.045; 0.08828
 593.32;35125.396;  293.193;42739.948; 0.08586
 593.90;35269.085;  297.895;42708.966; 0.08377
 594.48;35231.153;  288.777;42603.037; 0.08313
 595.06;35186.248;  285.245;42684.475; 0.08452
 595.64;35224.343;  272.769;42709.242; 0.08427
 596.22;35343.908;  276.890;42757.472; 0.08329
 596.80;35469.395;  268.138;42505.619; 0.07914
 597.38;35472.006;  264.245;42457.558; 0.07861
 597.96;35438.022;  262.869;42299.911; 0.07740
 598.54;35565.514;  268.057;42320.734; 0.07605
 599.12;35653.193;  272.769;42174.074; 0.07346
 599.70;35657.407;  272.156;42133.628; 0.07299
 600.28;35540.988;  269.178;41999.881; 0.07303
 600.86;35464.684;  273.568;41898.236; 0.07292
 601.44;35482.101;  279.130;41816.989; 0.07186
 602.02;35513.762;  273.135;41601.984; 0.06921
 602.59;35476.950;  269.019;41487.164; 0.06845
 603.17;35457.101;  254.435;41427.991; 0.06804
 603.75;35430.133;  264.600;41407.036; 0.06817
 604.33;35509.133;  268.544;41269.041; 0.06575
 604.91;35451.404;  272.574;41056.648; 0.06421
 605.49;35383.828;  271.546;40985.067; 0.06428
 606.07;35097.988;  254.900;40828.877; 0.06613
 606.65;35056.147;  260.422;40696.701; 0.06525
 607.23;34913.579;  264.441;40448.820; 0.06436
 607.80;34849.465;  277.156;40221.379; 0.06273
 608.38;34796.236;  277.256;40025.464; 0.06126
 608.96;34653.779;  285.786;39921.000; 0.06193
 609.54;34516.156;  288.246;39743.725; 0.06173
 610.12;34255.472;  283.928;39528.375; 0.06266
 610.70;34150.718;  273.259;39095.265; 0.05917
 611.28;34030.182;  259.195;38813.390; 0.05753
 611.85;33781.022;  265.841;38433.913; 0.05646
 612.43;33511.060;  260.695;38304.961; 0.05849
 613.01;33359.931;  263.202;38019.161; 0.05720
 613.59;33176.220;  249.299;37795.112; 0.05701
 614.17;33135.185;  240.914;37668.085; 0.05607
 614.75;32850.970;  222.778;37521.205; 0.05810
 615.32;32697.547;  209.277;37291.775; 0.05744
 615.90;32359.004;  219.080;36866.572; 0.05700
 616.48;32169.416;  232.952;36658.988; 0.05713
 617.06;32062.586;  255.157;36308.488; 0.05442
 617.64;31907.574;  246.140;36072.812; 0.05368
 618.22;31717.946;  241.049;35666.522; 0.05132
 618.79;31491.713;  228.178;35515.632; 0.05258
 619.37;31264.097;  227.104;35180.352; 0.05161
 619.95;30895.699;  231.387;34894.600; 0.05324
 620.53;30447.597;  218.869;34491.494; 0.05453
 621.11;30125.392;  206.529;34156.975; 0.05490
 621.68;30063.114;  201.116;33920.700; 0.05276
 622.26;30023.868;  202.843;33803.106; 0.05182
 622.84;29871.806;  212.594;33643.042; 0.05198
 623.42;29664.500;  214.208;33340.072; 0.05108
 623.99;29470.252;  232.130;33128.823; 0.05120
 624.57;29396.635;  239.695;32874.211; 0.04894
 625.15;29268.369;  249.244;32723.283; 0.04885
 625.73;29093.866;  235.066;32483.448; 0.04823
 626.30;28940.545;  228.444;32290.122; 0.04792
 626.88;28774.026;  228.031;32032.596; 0.04694
 627.46;28661.539;  230.061;31766.787; 0.04502
 628.04;28449.632;  242.419;31549.234; 0.04528
 628.61;28276.836;  241.899;31249.103; 0.04376
 629.19;28016.822;  244.829;31015.066; 0.04452
 629.77;27770.850;  231.831;30736.758; 0.04442
 630.35;27541.611;  234.217;30562.869; 0.04557
 630.92;27423.988;  232.092;30375.921; 0.04476
 631.50;27200.202;  220.757;30199.145; 0.04578
 632.08;26947.066;  206.521;29949.680; 0.04622
 632.66;26727.852;  196.801;29744.460; 0.04677
 633.23;26609.484;  216.776;29426.430; 0.04404
 633.81;26505.744;  225.566;29138.020; 0.04146
 634.39;26294.492;  220.298;28844.754; 0.04053
 634.96;26158.532;  221.956;28624.791; 0.03945
 635.54;26030.953;  216.680;28606.896; 0.04131
 636.12;25806.013;  214.735;28334.976; 0.04093
 636.69;25575.635;  204.526;28222.591; 0.04310
 637.27;25295.891;  199.403;27913.834; 0.04309
 637.85;25140.456;  217.219;27696.062; 0.04239
 638.42;24958.383;  206.286;27392.989; 0.04074
 639.00;24865.172;  223.367;27259.457; 0.04027
 639.58;24732.985;  209.789;26981.612; 0.03810
 640.15;24539.178;  222.891;26790.445; 0.03845
 640.73;24290.626;  204.119;26492.226; 0.03799
 641.31;24290.408;  216.013;26471.006; 0.03766
 641.88;24196.523;  210.908;26285.787; 0.03627
 642.46;24033.638;  226.803;26132.901; 0.03670
 643.04;23779.086;  214.697;25934.349; 0.03801
 643.61;23648.201;  223.925;25817.463; 0.03846
 644.19;23508.983;  209.153;25659.577; 0.03834
 644.77;23321.431;  224.048;25468.358; 0.03860
 645.34;23079.546;  211.943;25293.805; 0.04014
 645.92;22987.661;  214.504;25070.586; 0.03801
 646.49;22857.443;  218.399;24938.033; 0.03818
 647.07;22770.558;  220.293;24745.814; 0.03647
 647.65;22638.006;  224.188;24564.928; 0.03582
 648.22;22382.454;  218.082;24391.042; 0.03767
 648.80;22299.236;  227.310;24368.156; 0.03891
 649.37;22151.018;  227.872;24339.937; 0.04133
 649.95;22197.799;  227.433;24242.051; 0.03864
 650.53;22069.581;  209.328;24121.165; 0.03896
 651.10;22023.029;  214.222;24054.279; 0.03868
 651.68;21902.811;  211.450;24020.060; 0.04045
 652.25;21828.592;  221.012;23899.174; 0.03974
 652.83;21752.041;  211.573;23700.955; 0.03762
 653.41;21725.156;  208.468;23524.069; 0.03487
 653.98;21653.937;  212.362;23340.850; 0.03289
 654.56;21633.386;  211.590;23307.630; 0.03268
 655.13;21503.167;  208.818;23285.744; 0.03491
 655.71;21447.616;  207.379;23284.525; 0.03602
 656.28;21364.731;  194.941;23185.639; 0.03584
 656.86;21257.846;  188.169;22962.753; 0.03379
 657.43;21248.294;  190.397;22872.868; 0.03228
 658.01;21286.076;  212.958;22793.315; 0.03000
 658.58;21370.857;  207.519;22876.096; 0.02984
 659.16;21300.972;  211.747;22798.876; 0.02980
 659.74;21189.421;  196.309;22777.324; 0.03167
 660.31;21116.869;  204.203;22714.438; 0.03197
 660.89;21048.317;  198.098;22687.885; 0.03287
 661.46;21036.099;  206.659;22545.999; 0.03039
 662.04;21005.214;  208.554;22516.780; 0.03047
 662.61;21010.995;  207.448;22500.894; 0.03004
 663.19;20968.110;  206.676;22626.342; 0.03337
 663.76;20950.559;  209.571;22600.456; 0.03324
 664.34;20938.340;  211.132;22526.237; 0.03206
 664.91;20990.455;  214.027;22413.684; 0.02878
 665.49;21137.904;  216.922;22441.798; 0.02626
 666.06;21112.019;  213.150;22513.246; 0.02818
 666.64;21127.134;  212.044;22555.693; 0.02869
 667.21;21112.582;  216.606;22500.140; 0.02792
 667.79;21120.697;  204.167;22400.588; 0.02579
 668.36;21086.479;  201.395;22402.702; 0.02654
 668.93;21009.594;  202.290;22421.149; 0.02851
 669.51;20995.042;  198.184;22426.263; 0.02890
 670.08;20985.824;  192.412;22387.044; 0.02832
 670.66;20977.939;  189.307;22273.825; 0.02626
 671.23;21054.387;  213.201;22361.606; 0.02642
 671.81;21028.835;  219.763;22403.720; 0.02779
 672.38;21088.283;  224.324;22501.167; 0.02846
 672.96;21100.398;  213.552;22510.281; 0.02837
 673.53;21137.847;  213.113;22482.395; 0.02705
 674.10;21121.962;  213.008;22524.843; 0.02820
 674.68;21121.077;  228.236;22505.290; 0.02786
 675.25;21041.525;  221.131;22417.404; 0.02779
 675.83;21004.973;  215.692;22370.185; 0.02762
 676.40;21016.422;  203.253;22300.299; 0.02600
 676.98;21017.870;  209.148;22323.413; 0.02643
 677.55;20927.652;  210.043;22281.527; 0.02749
 678.12;20938.767;  223.937;22260.975; 0.02687
 678.70;20918.548;  221.832;22236.089; 0.02680
 679.27;20940.997;  229.060;22163.870; 0.02491
 679.85;20841.778;  216.621;22124.984; 0.02621
 680.42;20806.560;  216.516;22133.431; 0.02712
 680.99;20787.342;  192.744;22099.212; 0.02682
 681.57;20855.790;  198.305;22028.659; 0.02398
 682.14;20930.572;  205.866;21848.773; 0.01883
 682.71;20822.353;  210.761;21795.554; 0.02004
 683.29;20606.135;  200.656;21706.668; 0.02281
 683.86;20385.916;  185.884;21546.116; 0.02425
 684.43;20329.031;  198.112;21362.230; 0.02174
 685.01;20289.813;  197.006;21197.011; 0.01918
 685.58;20278.261;  206.234;21272.458; 0.02100
 686.16;20260.710;  206.462;21269.239; 0.02131
 686.73;20246.825;  215.023;21397.686; 0.02426
 687.30;20236.606;  207.585;21388.467; 0.02428
 687.88;20101.055;  217.479;21321.914; 0.02588
 688.45;19960.503;  210.707;21118.362; 0.02474
 689.02;19900.951;  213.602;21022.142; 0.02405
 689.60;19931.400;  190.497;20889.257; 0.02058
 690.17;19961.181;  199.391;20926.704; 0.02072
 690.74;19813.630;  189.619;20805.485; 0.02141
 691.31;19734.078;  204.181;20824.932; 0.02360
 691.89;19636.860;  191.742;20754.713; 0.02428
 692.46;19672.641;  212.637;20700.494; 0.02235
 693.03;19634.423;  229.198;20611.941; 0.02134
 693.61;19599.538;  234.759;20426.722; 0.01817
 694.18;19503.319;  237.320;20424.503; 0.02028
 694.75;19512.101;  206.882;20414.950; 0.01985
 695.32;19390.549;  208.110;20458.064; 0.02352
 695.90;19382.664;  203.004;20312.512; 0.02056
 696.47;19238.446;  203.899;20210.626; 0.02163
 697.04;19250.561;  214.460;20060.073; 0.01809
 697.62;19193.676;  213.355;20039.187; 0.01893
 698.19;19125.791;  229.250;19951.301; 0.01857
 698.76;19072.573;  211.144;19960.082; 0.01997
 699.33;18947.354;  210.706;19883.196; 0.02117
 699.91;18888.136;  196.600;19795.977; 0.02060
 700.48;18762.918;  206.162;19674.091; 0.02082
 701.05;18660.366;  208.056;19645.538; 0.02259
 701.62;18579.814;  232.951;19536.652; 0.02208
 702.20;18526.596;  235.179;19463.767; 0.02170
 702.77;18461.044;  232.073;19314.881; 0.01988
 703.34;18411.159;  217.301;19303.995; 0.02081
 703.91;18396.607;  214.196;19161.775; 0.01790
 704.48;18408.389;  220.091;19054.223; 0.01515
 705.06;18357.837;  212.652;18964.004; 0.01427
 705.63;18215.952;  221.213;18940.118; 0.01713
 706.20;18164.401;  214.441;18934.565; 0.01825
 706.77;17978.516;  221.336;18864.679; 0.02115
 707.34;17942.297;  215.564;18821.793; 0.02103
 707.92;17840.412;  205.792;18710.907; 0.02093
 708.49;17832.861;  193.353;18575.022; 0.01790
 709.06;17805.309;  193.248;18466.136; 0.01600
 709.63;17735.091;  194.476;18431.916; 0.01692
 710.20;17685.539;  191.037;18446.697; 0.01850
 710.77;17589.987;  187.932;18338.145; 0.01828
 711.35;17658.102;  185.826;18305.592; 0.01580
 711.92;17722.551;  205.721;18271.706; 0.01341
 712.49;17832.665;  207.616;18372.487; 0.01310
 713.06;17834.114;  215.844;18405.934; 0.01387
 713.63;17800.895;  209.405;18498.382; 0.01689
 714.20;17822.344;  212.300;18556.829; 0.01775
 714.78;17847.792;  209.528;18487.277; 0.01547
 715.35;17939.574;  205.756;18407.724; 0.01132
 715.92;17781.022;  207.317;18351.838; 0.01388
 716.49;17653.137;  222.545;18343.285; 0.01686
 717.06;17485.919;  226.106;18273.400; 0.01938
 717.63;17509.367;  217.334;18198.847; 0.01698
 718.20;17556.815;  210.895;18175.294; 0.01522
 718.77;17547.597;  224.790;18170.075; 0.01533
 719.35;17532.379;  226.351;18153.189; 0.01531
 719.92;17364.160;  211.913;18038.303; 0.01674
 720.49;17277.942;  197.474;17879.084; 0.01502
 721.06;17175.724;  177.369;17774.532; 0.01504
 721.63;17246.505;  190.930;17799.979; 0.01387
 722.20;17288.287;  195.825;17861.426; 0.01432
 722.77;17320.402;  203.386;17825.540; 0.01263
 723.34;17233.183;  196.947;17821.321; 0.01474
 723.91;17234.965;  205.509;17813.102; 0.01450
 724.48;17187.080;  222.070;17777.883; 0.01487
 725.05;17092.195;  212.964;17617.997; 0.01332
 725.62;16992.310;  195.192;17490.778; 0.01270
 726.20;16930.092;  186.754;17461.892; 0.01358
 726.77;16986.873;  192.982;17446.339; 0.01172
 727.34;16985.655;  199.210;17412.787; 0.01091
 727.91;16954.770;  209.104;17361.567; 0.01042
 728.48;16902.885;  214.999;17354.015; 0.01158
 729.05;16964.333;  215.560;17353.795; 0.00998
 729.62;16954.782;  192.788;17320.910; 0.00938
 730.19;16968.897;  185.683;17297.024; 0.00841
 730.76;16881.678;  188.578;17324.138; 0.01136
 731.33;16906.460;  211.472;17306.252; 0.01028
 731.90;16867.908;  215.034;17274.033; 0.01046
 732.47;16792.356;  206.261;17242.147; 0.01162
 733.04;16721.471;  191.156;17245.594; 0.01356
 733.61;16701.253;  168.051;17256.042; 0.01433
 734.18;16717.701;  173.945;17191.156; 0.01225
 734.75;16625.150;  184.507;17077.270; 0.01178
 735.32;16511.598;  211.401;16955.384; 0.01167
 735.89;16420.380;  203.963;16851.831; 0.01140
 736.46;16431.828;  212.191;16734.945; 0.00804
 737.03;16346.610;  203.085;16674.393; 0.00873
 737.60;16241.058;  203.647;16580.840; 0.00911
 738.17;16137.506;  173.208;16558.621; 0.01131
 738.74;16162.621;  184.103;16523.735; 0.00971
 739.31;16036.403;  185.331;16430.849; 0.01067
 739.88;15992.518;  195.225;16300.630; 0.00839
 740.45;15853.966;  176.120;16234.411; 0.01041
 741.02;15893.415;  174.348;16293.858; 0.01093
 741.59;15884.196;  171.909;16337.305; 0.01235
 742.15;15880.978;  177.804;16325.753; 0.01213
 742.72;15865.759;  185.365;16376.867; 0.01393
 743.29;15878.541;  187.593;16351.648; 0.01290
 743.86;15825.656;  195.154;16298.095; 0.01293
 744.43;15759.771;  197.049;16220.543; 0.01267
 745.00;15734.219;  201.277;16240.323; 0.01392
 745.57;15814.668;  209.172;16261.771; 0.01227
 746.14;15998.449;  201.733;16198.552; 0.00547
 746.71;15925.898;  208.294;16179.666; 0.00696
 747.28;15959.013;  196.522;16170.446; 0.00579
 747.85;15862.461;  172.417;16124.227; 0.00719
 748.42;15884.909;  173.645;16103.675; 0.00601
 748.98;15769.024;  177.206;16075.455; 0.00845
 749.55;15704.806;  197.767;16011.569; 0.00851
 750.12;15727.921;  197.662;16015.683; 0.00797
 750.69;15723.036;  204.890;15955.131; 0.00645
 751.26;15672.151;  216.118;15910.245; 0.00664
 751.83;15568.266;  206.013;15821.026; 0.00709
 752.40;15546.047;  204.907;15769.807; 0.00629
 752.97;15457.162;  192.802;15780.587; 0.00911
 753.53;15440.944;  195.697;15773.035; 0.00936
 754.10;15395.726;  187.925;15706.815; 0.00879
 754.67;15397.841;  185.486;15666.263; 0.00760
 755.24;15352.622;  192.714;15616.044; 0.00748
 755.81;15316.071;  200.608;15583.491; 0.00762
 756.38;15347.186;  223.503;15510.272; 0.00466
 756.94;15299.301;  215.064;15482.386; 0.00524
 757.51;15173.082;  204.292;15502.833; 0.00946
 758.08;15072.531;  196.520;15545.281; 0.01359
 758.65;14971.646;  213.748;15443.728; 0.01367
 759.22;14951.427;  220.643;15351.176; 0.01163
 759.79;14838.209;  205.538;15180.623; 0.01005
 760.35;14715.324;  191.432;15130.404; 0.01224
 760.92;14557.772;  201.994;14987.518; 0.01281
 761.49;14450.887;  208.555;14849.965; 0.01200
 762.06;14349.335;  211.783;14641.079; 0.00887
 762.63;14328.117;  201.011;14500.527; 0.00527
 763.19;14207.232;  203.239;14469.641; 0.00806
 763.76;14108.014;  215.133;14423.422; 0.00975
 764.33;13957.129;  219.695;14294.202; 0.01053
 764.90;13843.244;  218.589;14107.650; 0.00835
 765.46;13680.692;  197.817;13914.097; 0.00745
 766.03;13567.807;  196.045;13749.878; 0.00587
 766.60;13438.922;  197.940;13624.992; 0.00606
 767.17;13317.370;  205.501;13465.773; 0.00489
 767.73;13157.152;  207.063;13413.220; 0.00850
 768.30;12997.934;  206.624;13205.001; 0.00697
 768.87;12861.715;  215.185;13045.782; 0.00628
 769.44;12757.830;  213.413;12836.229; 0.00271
 770.00;12609.612;  215.975;12686.677; 0.00269
 770.57;12436.727;  216.536;12525.791; 0.00315
 771.14;12162.509;  213.430;12350.238; 0.00677
 771.71;11934.623;  198.325;12122.686; 0.00690
 772.27;11716.738;  206.220;11935.800; 0.00819
 772.84;11530.187;  209.448;11715.914; 0.00707
 773.41;11396.302;  213.676;11595.695; 0.00768
 773.97;11344.750;  205.904;11440.809; 0.00373
 774.54;11237.532;  213.798;11314.923; 0.00304
 775.11;11096.647;  232.360;11227.370; 0.00519
 775.67;10894.095;  228.588;11074.818; 0.00730
 776.24;10725.877;  222.482;10902.265; 0.00723
 776.81;10574.325;  220.377;10665.712; 0.00382
 777.38;10437.440;  208.272;10484.160; 0.00198
 777.94;10324.888;  214.166;10350.941; 0.00112
 778.51;10234.337;  199.728;10214.721;-0.00085
 779.08;10113.452;  210.622;10137.835; 0.00107
 779.64;10020.567;  201.517;10058.283; 0.00166
 780.21; 9928.682;  202.745; 9970.064; 0.00184
 780.78; 9833.797;  211.639; 9870.178; 0.00164
 781.34; 9722.578;  212.534; 9787.625; 0.00296
 781.91; 9617.026;  225.762; 9703.406; 0.00398
 782.47; 9509.475;  227.990; 9633.520; 0.00577
 783.04; 9428.256;  238.551; 9482.634; 0.00256
 783.61; 9363.371;  245.779; 9385.415; 0.00105
 784.17; 9295.820;  246.674; 9320.196; 0.00117
 784.74; 9251.601;  236.569; 9240.310;-0.00054
 785.31; 9158.050;  244.797; 9256.090; 0.00475
 785.87; 9148.165;  248.691; 9137.538;-0.00052
 786.44; 9083.946;  252.252; 9126.319; 0.00208
 787.00; 8996.728;  239.480; 9065.766; 0.00341
 787.57; 8906.510;  222.375; 9005.880; 0.00494
 788.14; 8855.625;  242.936; 8941.661; 0.00432
 788.70; 8859.406;  252.831; 8828.442;-0.00157
 789.27; 8858.855;  261.392; 8880.222; 0.00108
 789.83; 8837.303;  247.620; 8836.003;-0.00007
 790.40; 8793.751;  230.182; 8838.117; 0.00224
 790.96; 8749.533;  235.076; 8799.898; 0.00256
 791.53; 8722.314;  229.304; 8766.679; 0.00226
 792.10; 8675.429;  224.866; 8777.126; 0.00520
 792.66; 8631.544;  219.094; 8720.574; 0.00457
 793.23; 8590.326;  214.988; 8733.688; 0.00737
 793.79; 8576.108;  216.216; 8675.468; 0.00513
 794.36; 8540.556;  210.777; 8660.249; 0.00620
 794.92; 8480.671;  219.339; 8606.363; 0.00656
 795.49; 8474.786;  232.233; 8532.811; 0.00305
 796.05; 8493.568;  243.461; 8505.258; 0.00061
 796.62; 8469.016;  248.023; 8527.372; 0.00307
 797.19; 8438.798;  237.917; 8507.820; 0.00364
 797.75; 8413.579;  226.145; 8453.600; 0.00212
 798.32; 8406.694;  218.373; 8393.714;-0.00069
 798.88; 8399.476;  222.601; 8383.829;-0.00083
 799.45; 8409.258;  224.829; 8436.276; 0.00143
 800.01; 8541.039;  220.391; 8517.723;-0.00122
 800.58; 8673.821;  215.952; 8677.504; 0.00019
 801.14; 8884.936;  222.513; 8916.952; 0.00160
 801.71; 9088.051;  218.074; 9117.399; 0.00143
 802.27; 9331.499;  206.969; 9310.180;-0.00102
 802.84; 9578.281;  188.864; 9480.294;-0.00456
 803.40; 9831.396;  179.758; 9723.075;-0.00490
 803.96;10152.511;  198.986;10006.189;-0.00643
 804.53;10504.626;  210.548;10273.303;-0.00987
 805.09;10793.741;  208.442;10576.417;-0.00901
 805.66;11077.189;  200.670;10926.198;-0.00607
 806.22;11350.637;  172.898;11264.978;-0.00334
 806.79;11725.752;  185.793;11622.426;-0.00391
 807.35;12079.201;  182.354;11886.873;-0.00708
 807.92;12430.982;  214.582;12161.654;-0.00968
 808.48;12746.764;  221.810;12436.768;-0.01088
 809.05;13012.879;  217.705;12708.882;-0.01044
 809.61;13264.661;  213.933;13054.330;-0.00706
 810.17;13535.442;  218.827;13355.110;-0.00592
 810.74;13852.557;  231.055;13671.891;-0.00580
 811.30;14178.339;  226.617;13899.672;-0.00876
 811.87;14476.787;  214.511;14212.453;-0.00812
 812.43;14866.902;  214.406;14571.233;-0.00885
 812.99;15156.350;  216.967;14881.014;-0.00808
 813.56;15530.465;  221.862;15191.462;-0.00973
 814.12;15791.914;  221.090;15523.909;-0.00754
 814.69;16152.029;  216.318;15866.356;-0.00786
 815.25;16461.144;  210.213;16143.804;-0.00856
 815.81;16777.259;  200.774;16302.251;-0.01263
 816.38;17122.374;  196.335;16642.699;-0.01249
 816.94;17385.155;  193.897;16882.479;-0.01289
 817.51;17649.937;  192.791;17283.594;-0.00921
 818.07;17882.385;  201.019;17504.374;-0.00939
 818.63;18174.500;  202.247;17804.155;-0.00904
 819.20;18434.615;  201.808;18033.936;-0.00965
 819.76;18680.730;  209.370;18216.050;-0.01107
 820.32;18901.179;  216.598;18394.831;-0.01193
 820.89;19109.293;  218.159;18583.278;-0.01226
 821.45;19218.075;  193.387;18775.726;-0.01022
 822.01;19282.857;  176.615;18965.173;-0.00728
 822.58;19334.638;  180.843;19065.620;-0.00614
 823.14;19469.753;  194.404;19233.068;-0.00537
 823.70;19533.868;  202.299;19352.182;-0.00410
 824.27;19656.317;  193.194;19462.963;-0.00434
 824.83;19677.432;  215.421;19467.743;-0.00470
 825.39;19667.213;  215.649;19374.524;-0.00658
 825.95;19528.328;  221.211;19316.972;-0.00478
 826.52;19381.110;  191.105;19274.752;-0.00241
 827.08;19193.225;  189.000;19152.200;-0.00094
 827.64;19026.340;  175.895;18949.314;-0.00178
 828.21;18745.122;  175.123;18660.095;-0.00199
 828.77;18516.903;  181.351;18397.542;-0.00284
 829.33;18148.685;  183.579;18029.323;-0.00290
 829.89;17833.467;  181.807;17638.104;-0.00483
 830.46;17468.248;  185.701;17297.218;-0.00432
 831.02;17140.363;  190.596;16895.332;-0.00632
 831.58;16779.811;  201.157;16540.779;-0.00631
 832.15;16276.926;  185.052;16128.893;-0.00401
 832.71;15806.708;  188.280;15811.341; 0.00013
 833.27;15292.156;  178.841;15353.455; 0.00176
 833.83;14828.271;  169.736;14940.569; 0.00331
 834.39;14415.386;  164.297;14394.016;-0.00065
 834.96;13969.168;  162.192;13925.464;-0.00138
 835.52;13626.283;  187.086;13474.578;-0.00493
 836.08;13156.398;  188.981;13047.025;-0.00368
 836.64;12833.180;  194.876;12619.473;-0.00741
 837.21;12399.961;  198.770;12148.920;-0.00903
 837.77;11966.410;  198.332;11759.367;-0.00771
 838.33;11467.191;  206.893;11447.148;-0.00077
 838.89;11012.973;  203.121;11001.596;-0.00046
 839.45;10596.088;  205.349;10589.710;-0.00027
 840.02;10142.203;  209.910;10134.490;-0.00034
 840.58; 9766.984;  201.805; 9836.938; 0.00316
 841.14; 9400.099;  224.699; 9457.052; 0.00269
 841.70; 9052.881;  220.594; 9049.833;-0.00015
 842.26; 8668.329;  218.155; 8613.280;-0.00284
 842.82; 8307.444;  209.050; 8233.061;-0.00401
 843.39; 7893.893;  200.278; 7802.175;-0.00521
 843.95; 7490.008;  213.839; 7446.956;-0.00258
 844.51; 7107.789;  213.734; 7076.737;-0.00196
 845.07; 6800.238;  223.295; 6751.184;-0.00325
 845.63; 6569.019;  228.523; 6447.965;-0.00837
 846.19; 6327.468;  213.418; 6205.745;-0.00873
 846.75; 6118.916;  212.646; 6042.860;-0.00563
 847.32; 5891.364;  191.874; 5828.307;-0.00483
 847.88; 5683.146;  198.435; 5647.088;-0.00286
 848.44; 5478.928;  182.996; 5418.202;-0.00501
 849.00; 5302.043;  188.224; 5206.649;-0.00818
 849.56; 5185.158;  183.119; 5035.763;-0.01317
 850.12; 5076.272;  176.680; 4913.211;-0.01470
 850.68; 4985.721;  181.908; 4877.325;-0.00991
 851.24; 4878.836;  184.136; 4806.439;-0.00675
 851.80; 4849.617;  199.364; 4790.220;-0.00558
 852.37; 4852.399;  196.592; 4731.334;-0.01144
 852.93; 4837.514;  204.820; 4729.448;-0.01025
 853.49; 4766.962;  212.715; 4650.895;-0.01121
 854.05; 4679.077;  223.943; 4597.676;-0.00801
 854.61; 4656.526;  224.171; 4520.790;-0.01351
 855.17; 4652.641;  234.066; 4501.904;-0.01507
 855.73; 4649.756;  222.627; 4484.352;-0.01654
 856.29; 4626.537;  213.855; 4475.132;-0.01516
 856.85; 4651.319;  192.749; 4517.913;-0.01319
 857.41; 4716.767;  203.644; 4600.027;-0.01138
 857.97; 4782.882;  205.205; 4760.141;-0.00216
 858.53; 4882.997;  207.433; 4902.255; 0.00179
 859.09; 5098.112;  192.328; 5028.370;-0.00622
 859.65; 5363.227;  184.889; 5166.484;-0.01682
 860.21; 5656.009;  182.451; 5403.598;-0.02050
 860.77; 5882.457;  179.679; 5685.045;-0.01530
 861.33; 6196.572;  189.573; 6014.826;-0.01334
 861.89; 6548.687;  205.135; 6331.273;-0.01515
 862.45; 6908.802;  215.363; 6656.387;-0.01669
 863.01; 7265.250;  205.924; 6960.168;-0.01919
 863.57; 7577.365;  191.152; 7240.949;-0.02025
 864.13; 7913.147;  180.713; 7598.730;-0.01803
 864.69; 8255.929;  188.608; 7928.510;-0.01799
 865.25; 8562.044;  208.502; 8274.958;-0.01519
 865.81; 8878.159;  215.730; 8598.739;-0.01424
 866.37; 9176.940;  213.625; 8883.853;-0.01444
 866.93; 9582.055;  200.853; 9198.967;-0.01811
 867.49; 9954.170;  216.081; 9536.081;-0.01906
 868.05;10297.952;  210.642; 9849.195;-0.01976
 868.61;10590.734;  206.870;10116.309;-0.02031
 869.17;10892.849;  185.765;10306.090;-0.02448
 869.73;11247.963;  202.660;10652.537;-0.02407
 870.29;11610.745;  209.554;10985.985;-0.02448
 870.85;11994.193;  212.115;11316.099;-0.02574
 871.41;12263.308;  192.010;11700.213;-0.02075
 871.97;12527.757;  179.571;12032.994;-0.01776
 872.53;12861.872;  184.799;12414.108;-0.01562
 873.09;13256.653;  192.361;12748.222;-0.01724
 873.65;13677.768;  202.922;13125.336;-0.01818
 874.20;14115.883;  204.150;13530.783;-0.01866
 874.76;14538.883;  206.483;13844.450;-0.02157
 875.32;14952.550;  199.150;14344.450;-0.01828
 875.88;15273.883;  204.817;14722.117;-0.01620
 876.44;15596.883;  218.150;15059.450;-0.01545
 877.00;15930.550;  218.150;15358.117;-0.01612
 877.56;16215.217;  215.483;15696.450;-0.01431
 878.12;16598.883;  204.483;16104.450;-0.01330
 878.68;16905.550;  211.817;16344.450;-0.01485
 879.23;17150.550;  207.150;16637.783;-0.01335
 879.79;17379.883;  220.483;16875.783;-0.01295
 880.35;17554.217;  205.150;17127.117;-0.01083
 880.91;17838.550;  192.150;17367.783;-0.01174
 881.47;18068.550;  175.817;17611.783;-0.01123
 882.03;18448.550;  191.483;17929.783;-0.01252
 882.59;18810.550;  204.150;18199.450;-0.01450
 883.14;19069.217;  217.150;18423.117;-0.01515
 883.70;19169.217;  220.150;18492.117;-0.01580
 884.26;19182.883;  217.483;18606.117;-0.01341
 884.82;19205.550;  200.150;18627.783;-0.01341
 885.38;19164.550;  184.483;18693.783;-0.01091
 885.94;19223.217;  186.817;18692.783;-0.01227
 886.49;19197.883;  200.150;18759.783;-0.01013
 887.05;19350.883;  192.817;18819.450;-0.01222
 887.61;19221.550;  182.817;18766.450;-0.01051
 888.17;19158.217;  175.817;18655.450;-0.01166
 888.73;18936.217;  189.483;18492.450;-0.01040
 889.28;18767.550;  190.150;18251.117;-0.01224
 889.84;18573.550;  191.817;18020.450;-0.01327
 890.40;18344.217;  194.817;17792.450;-0.01341
 890.96;18160.550;  199.483;17628.450;-0.01306
 891.51;17948.883;  189.483;17470.117;-0.01187
 892.07;17688.550;  183.817;17244.117;-0.01117
 892.63;17502.883;  190.483;17036.783;-0.01185
 893.19;17396.217;  200.817;16880.117;-0.01323
 893.74;17346.217;  215.150;16772.783;-0.01479
 894.30;17283.883;  206.150;16671.450;-0.01586
 894.86;17146.217;  185.150;16510.450;-0.01659
 895.42;17022.883;  176.483;16397.450;-0.01643
 895.97;16928.217;  175.150;16362.450;-0.01492
 896.53;16874.550;  203.817;16299.450;-0.01525
 897.09;16795.883;  212.817;16258.117;-0.01432
 897.65;16734.217;  225.483;16079.783;-0.01757
 898.20;16657.883;  228.483;15994.117;-0.01791
 898.76;16561.883;  215.150;15888.117;-0.01828
 899.32;16445.883;  215.483;15824.450;-0.01696
 899.87;16365.883;  206.483;15765.117;-0.01645
 900.43;16310.550;  206.150;15631.783;-0.01870
 900.99;16178.217;  194.483;15508.450;-0.01859
 901.54;15957.550;  181.150;15319.450;-0.01793
 902.10;15678.883;  193.150;15133.117;-0.01558
 902.66;15420.883;  208.483;14918.117;-0.01460
 903.21;15206.550;  221.817;14754.117;-0.01331
 903.77;15130.217;  229.483;14588.450;-0.01608
 904.33;14991.883;  209.483;14443.783;-0.01641
 904.88;14825.217;  198.150;14329.783;-0.01496
 905.44;14647.550;  177.150;14293.450;-0.01076
 906.00;14641.217;  191.150;14324.117;-0.00964
 906.55;14606.550;  207.483;14294.117;-0.00953
 907.11;14533.550;  214.150;14239.117;-0.00902
 907.67;14318.883;  205.817;14016.117;-0.00942
 908.22;14187.217;  196.150;13855.783;-0.01041
 908.78;14126.550;  187.817;13715.783;-0.01299
 909.33;14024.550;  195.483;13616.783;-0.01300
 909.89;13922.883;  192.150;13488.783;-0.01395
 910.45;13824.883;  201.150;13406.783;-0.01354
 911.00;13795.550;  191.483;13362.117;-0.01406
 911.56;13715.883;  203.817;13272.117;-0.01450
 912.12;13604.883;  208.483;13101.117;-0.01665
 912.67;13428.217;  221.483;12951.117;-0.01598
 913.23;13271.217;  194.150;12807.450;-0.01568
 913.78;13087.883;  178.483;12651.783;-0.01492
 914.34;13032.550;  201.483;12642.117;-0.01342
 914.89;12954.217;  216.483;12543.117;-0.01425
 915.45;12904.550;  227.150;12558.117;-0.01203
 916.01;12797.550;  195.483;12386.117;-0.01442
 916.56;12705.217;  201.483;12282.450;-0.01494
 917.12;12635.550;  196.817;12063.117;-0.02046
 917.67;12516.217;  195.483;11981.117;-0.01928
 918.23;12423.550;  182.817;11944.450;-0.01734
 918.78;12196.883;  186.483;11927.117;-0.00987
 919.34;12024.883;  188.817;11843.783;-0.00670
 919.89;11881.217;  199.150;11694.117;-0.00701
 920.45;11816.883;  185.817;11531.783;-0.01078
 921.00;11706.550;  168.817;11330.783;-0.01438
 921.56;11609.883;  176.150;11296.783;-0.01206
 922.11;11495.217;  175.150;11154.450;-0.01327
 922.67;11389.883;  202.483;11048.450;-0.01346
 923.22;11254.550;  191.150;10815.450;-0.01759
 923.78;11085.217;  202.817;10632.117;-0.01847
 924.33;10871.550;  195.817;10497.117;-0.01551
 924.89;10660.217;  196.483;10361.117;-0.01259
 925.44;10490.217;  204.817;10248.117;-0.01034
 926.00;10413.217;  201.150;10018.783;-0.01711
 926.55;10287.883;  205.150; 9867.117;-0.01851
 927.11;10196.550;  188.150; 9720.450;-0.02117
 927.66;10076.883;  177.817; 9717.117;-0.01608
 928.22;10045.217;  174.483; 9670.783;-0.01679
 928.77; 9942.550;  190.150; 9636.117;-0.01387
 929.33; 9871.217;  204.150; 9587.783;-0.01292
 929.88; 9836.217;  205.150; 9516.450;-0.01466
 930.43; 9825.217;  182.483; 9493.450;-0.01521
 930.99; 9854.217;  174.817; 9470.117;-0.01759
 931.54; 9793.550;  167.150; 9456.783;-0.01547
 932.10; 9831.217;  190.150; 9473.117;-0.01644
 932.65; 9838.883;  197.150; 9480.117;-0.01647
 933.21; 9871.883;  198.483; 9496.450;-0.01719
 933.76; 9888.883;  187.483; 9472.117;-0.01907
 934.31; 9843.883;  183.150; 9454.117;-0.01789
 934.87; 9833.550;  190.150; 9433.783;-0.01839
 935.42; 9810.883;  199.483; 9431.450;-0.01749
 935.98; 9829.550;  195.483; 9388.450;-0.02035
 936.53; 9793.217;  193.817; 9335.450;-0.02122
 937.08; 9753.217;  191.150; 9347.783;-0.01882
 937.64; 9704.550;  197.817; 9356.783;-0.01618
 938.19; 9625.883;  196.483; 9425.117;-0.00935
 938.74; 9610.550;  199.817; 9340.117;-0.01266
 939.30; 9583.883;  187.150; 9339.783;-0.01143
 939.85; 9660.550;  186.483; 9209.783;-0.02117
 940.40; 9618.217;  173.817; 9251.783;-0.01719
 940.96; 9633.550;  187.150; 9238.450;-0.01856
 941.51; 9532.550;  189.483; 9244.783;-0.01359
 942.06; 9536.550;  197.150; 9160.450;-0.01785
 942.62; 9444.883;  184.817; 9036.783;-0.01957
 943.17; 9356.550;  195.150; 8966.450;-0.01890
 943.72; 9214.217;  180.483; 8903.117;-0.01522
 944.28; 9136.883;  199.483; 8795.117;-0.01693
 944.83; 9068.217;  184.150; 8766.783;-0.01499
 945.38; 9017.883;  194.483; 8735.117;-0.01415
 945.94; 9025.883;  186.483; 8804.450;-0.01102
 946.49; 9059.217;  205.150; 8772.783;-0.01428
 947.04; 8968.550;  208.817; 8738.117;-0.01158
 947.60; 8888.217;  215.150; 8638.117;-0.01271
 948.15; 8812.550;  203.483; 8519.117;-0.01506
 948.70; 8737.883;  212.817; 8413.783;-0.01683
 949.25; 8641.883;  206.150; 8325.117;-0.01662
 949.81; 8499.883;  208.817; 8271.117;-0.01215
 950.36; 8428.217;  198.483; 8157.117;-0.01455
 950.91; 8279.550;  207.150; 8037.783;-0.01321
 951.46; 8133.550;  203.817; 7873.117;-0.01450
 952.02; 8011.550;  207.150; 7734.117;-0.01572
 952.57; 7920.550;  207.150; 7606.450;-0.01806
 953.12; 7846.550;  218.483; 7526.117;-0.01864
 953.67; 7728.217;  218.150; 7443.783;-0.01677
 954.23; 7569.217;  215.817; 7359.450;-0.01257
 954.78; 7403.550;  208.150; 7234.450;-0.01033
 955.33; 7284.883;  218.150; 7119.783;-0.01027
 955.88; 7196.550;  217.150; 6980.117;-0.01368
 956.44; 7098.883;  230.483; 6838.450;-0.01679
 956.99; 7077.217;  228.817; 6737.117;-0.02212
 957.54; 7016.550;  223.817; 6672.783;-0.02255
 958.09; 6968.550;  222.150; 6636.783;-0.02190
 958.64; 6866.550;  206.817; 6607.450;-0.01723
 959.20; 6846.217;  203.483; 6532.450;-0.02101
 959.75; 6818.550;  199.817; 6496.450;-0.02167
 960.30; 6736.883;  218.150; 6441.783;-0.02012
 960.85; 6666.217;  225.150; 6424.450;-0.01662
 961.40; 6617.883;  228.817; 6381.117;-0.01640
 961.95; 6685.550;  231.817; 6360.783;-0.02242
 962.51; 6697.217;  239.483; 6360.117;-0.02328
 963.06; 6727.217;  242.817; 6380.117;-0.02389
 963.61; 6661.883;  234.150; 6314.783;-0.02411
 964.16; 6612.217;  235.150; 6258.450;-0.02479
 964.71; 6599.217;  222.483; 6212.117;-0.02720
 965.26; 6600.550;  213.150; 6253.117;-0.02429
 965.81; 6596.217;  210.817; 6289.117;-0.02141
 966.36; 6583.550;  208.483; 6323.783;-0.01807
 966.92; 6579.883;  216.150; 6305.117;-0.01917
 967.47; 6614.217;  218.483; 6338.117;-0.01916
 968.02; 6638.883;  232.483; 6354.117;-0.01975
 968.57; 6674.217;  234.817; 6375.450;-0.02063
 969.12; 6695.883;  219.817; 6368.783;-0.02251
 969.67; 6736.883;  204.483; 6420.783;-0.02154
 970.22; 6773.883;  194.150; 6469.783;-0.02055
 970.77; 6868.883;  199.817; 6539.117;-0.02202
 971.32; 6967.217;  197.483; 6593.117;-0.02469
 971.87; 7035.550;  198.817; 6693.117;-0.02232
 972.42; 7145.217;  215.150; 6793.117;-0.02265
 972.98; 7170.217;  220.817; 6908.783;-0.01665
 973.53; 7238.217;  231.483; 6996.117;-0.01527
 974.08; 7249.550;  215.483; 7040.450;-0.01311
 974.63; 7326.550;  223.483; 7078.450;-0.01544
 975.18; 7432.217;  218.483; 7103.117;-0.02028
 975.73; 7529.217;  224.817; 7157.450;-0.02269
 976.28; 7573.883;  221.483; 7219.117;-0.02148
 976.83; 7562.883;  221.483; 7315.450;-0.01489
 977.38; 7597.550;  219.483; 7373.783;-0.01338
 977.93; 7639.550;  222.150; 7387.450;-0.01502
 978.48; 7729.217;  228.483; 7365.783;-0.02157
 979.03; 7753.550;  234.817; 7358.117;-0.02346
 979.58; 7762.217;  221.483; 7329.117;-0.02569
 980.13; 7712.883;  207.150; 7367.783;-0.02044
 980.68; 7643.883;  186.483; 7310.450;-0.01987
 981.23; 7569.217;  185.817; 7278.117;-0.01747
 981.78; 7550.217;  207.150; 7207.450;-0.02076
 982.33; 7503.217;  219.150; 7257.117;-0.01493
 982.88; 7517.217;  232.483; 7211.783;-0.01860
 983.43; 7476.550;  218.150; 7145.783;-0.02026
 983.98; 7421.883;  215.150; 6984.117;-0.02722
 984.53; 7271.883;  203.817; 6873.450;-0.02520
 985.08; 7176.550;  209.817; 6835.783;-0.02178
 985.63; 7120.217;  211.150; 6787.117;-0.02146
 986.18; 7064.550;  218.817; 6756.783;-0.01998
 986.73; 6921.217;  218.483; 6610.450;-0.02062
 987.27; 6847.550;  227.483; 6521.117;-0.02196
 987.82; 6796.550;  238.483; 6431.783;-0.02485
 988.37; 6786.883;  243.150; 6400.783;-0.02641
 988.92; 6672.217;  234.150; 6351.117;-0.02222
 989.47; 6559.883;  214.483; 6285.117;-0.01923
 990.02; 6437.217;  208.483; 6199.117;-0.01693
 990.57; 6375.883;  208.150; 6083.117;-0.02112
 991.12; 6314.883;  215.150; 6044.450;-0.01969
 991.67; 6232.217;  213.817; 5969.117;-0.01941
 992.22; 6137.883;  200.483; 5915.450;-0.01658
 992.77; 6091.883;  200.150; 5802.450;-0.02188
 993.31; 6053.883;  204.817; 5735.783;-0.02429
 993.86; 6005.550;  230.483; 5683.783;-0.02490
 994.41; 5872.217;  235.150; 5580.117;-0.02311
 994.96; 5714.217;  226.483; 5473.117;-0.01951
 995.51; 5560.550;  218.817; 5377.783;-0.01512
 996.06; 5463.550;  208.483; 5293.783;-0.01426
 996.61; 5407.550;  222.483; 5201.783;-0.01759
 997.15; 5315.550;  236.150; 5083.450;-0.02031
 997.70; 5215.883;  241.150; 4965.117;-0.02246
 998.25; 5085.550;  247.483; 4873.450;-0.01947
 998.80; 4962.883;  248.483; 4740.117;-0.02102
 999.35; 4823.550;  249.483; 4623.450;-0.01943
 999.90; 4647.550;  236.150; 4455.117;-0.01937
1000.44; 4461.883;  224.483; 4340.450;-0.01263
1000.99; 4322.217;  232.483; 4190.783;-0.01419
1001.54; 4238.883;  237.150; 4067.450;-0.01902
1002.09; 4125.217;  231.817; 3939.117;-0.02127
1002.64; 4050.550;  238.483; 3855.450;-0.02282
1003.18; 3914.550;  240.483; 3766.783;-0.01783
1003.73; 3815.883;  238.483; 3661.450;-0.01916
1004.28; 3708.883;  226.817; 3584.450;-0.01580
1004.83; 3642.550;  209.483; 3488.117;-0.01999
1005.38; 3589.883;  210.150; 3420.783;-0.02229
1005.92; 3509.883;  219.150; 3321.783;-0.02556
1006.47; 3447.883;  236.817; 3231.783;-0.03026
1007.02; 3353.217;  235.483; 3140.117;-0.03075
1007.57; 3248.550;  222.817; 3087.450;-0.02376
1008.11; 3166.883;  211.817; 3028.450;-0.02084
1008.66; 3119.550;  205.150; 2973.450;-0.02234
1009.21; 3057.883;  192.483; 2907.783;-0.02337
1009.75; 2969.217;  177.817; 2862.117;-0.01699
1010.30; 2874.883;  170.150; 2793.117;-0.01333
1010.85; 2820.217;  176.817; 2712.783;-0.01802
1011.40; 2768.550;  204.150; 2628.450;-0.02440
1011.94; 2726.883;  221.817; 2545.783;-0.03259
1012.49; 2653.217;  216.483; 2464.450;-0.03502
1013.04; 2550.883;  194.150; 2362.117;-0.03626
1013.58; 2443.550;  184.150; 2325.117;-0.02338
1014.13; 2350.883;  188.483; 2268.117;-0.01695
1014.68; 2312.550;  196.483; 2233.450;-0.01655
1015.23; 2262.550;  203.150; 2181.450;-0.01745
1015.77; 2220.883;  199.817; 2113.117;-0.02380
1016.32; 2164.550;  204.817; 2072.450;-0.02091
1016.87; 2122.883;  209.483; 2012.783;-0.02574
1017.41; 2079.550;  206.817; 1977.450;-0.02435
1017.96; 2025.217;  194.817; 1953.450;-0.01737
1018.50; 1968.883;  186.483; 1926.450;-0.01046
1019.05; 1909.550;  188.483; 1903.450;-0.00154
1019.60; 1858.217;  182.817; 1815.783;-0.01114
1020.14; 1821.217;  196.150; 1752.783;-0.01868
1020.69; 1795.217;  196.150; 1698.117;-0.02721
1021.24; 1761.550;  209.483; 1650.450;-0.03226
1021.78; 1702.550;  188.483; 1620.450;-0.02421
1022.33; 1623.550;  190.150; 1592.450;-0.00953
1022.87; 1575.217;  182.817; 1587.783; 0.00390
1023.42; 1536.883;  198.150; 1567.117; 0.00970
1023.97; 1499.550;  200.150; 1516.117; 0.00550
1024.51; 1464.550;  212.150; 1465.117; 0.00020
1025.06; 1427.883;  200.483; 1401.117;-0.00958
1025.60; 1393.550;  198.817; 1340.783;-0.01962
1026.15; 1338.550;  181.150; 1307.783;-0.01170
1026.70; 1287.217;  185.483; 1284.783;-0.00096
1027.24; 1268.550;  195.483; 1279.783; 0.00452
1027.79; 1270.883;  200.483; 1270.450;-0.00018
1028.33; 1289.550;  197.483; 1252.450;-0.01501
1028.88; 1260.550;  188.817; 1215.450;-0.01867
1029.42; 1239.550;  208.150; 1198.450;-0.01766
1029.97; 1187.550;  197.817; 1156.450;-0.01387
1030.51; 1169.550;  190.150; 1127.117;-0.01924
1031.06; 1148.217;  182.817; 1088.783;-0.02760
1031.61; 1135.883;  192.483; 1063.117;-0.03486
1032.15; 1110.550;  210.150; 1050.450;-0.03000
1032.70; 1079.883;  202.817; 1024.117;-0.02853
1033.24; 1062.883;  206.483; 1018.117;-0.02332
1033.79; 1068.217;  200.817; 1020.450;-0.02460
1034.33; 1048.550;  199.817; 1016.450;-0.01674
1034.88; 1037.217;  201.817; 1008.783;-0.01504
1035.42; 1009.217;  202.817;  979.450;-0.01633
1035.97;  980.217;  204.483;  950.450;-0.01699
1036.51;  976.883;  206.483;  931.450;-0.02640
1037.06;  977.217;  200.817;  944.117;-0.01892
1037.60; 1011.550;  207.150;  948.783;-0.03528
1038.14;  997.550;  204.150;  928.783;-0.03937
1038.69;  996.217;  222.150;  927.783;-0.04020
1039.23;  984.550;  234.483;  935.783;-0.02920
1039.78;  982.550;  235.150;  948.783;-0.02008
1040.32;  949.883;  224.483;  915.783;-0.02091
1040.87;  919.550;  208.483;  887.117;-0.02028
1041.41;  888.883;  198.150;  864.117;-0.01586
1041.96;  899.550;  200.817;  882.783;-0.01055
1042.50;  894.550;  197.817;  893.117;-0.00089
1043.04;  921.550;  213.817;  899.117;-0.01399
1043.59;  916.550;  217.150;  867.450;-0.03161
1044.13;  919.883;  212.483;  869.450;-0.03212
1044.68;  902.550;  205.817;  862.117;-0.02596
1045.22;  891.883;  199.150;  873.783;-0.01150
1045.76;  877.217;  201.817;  869.450;-0.00502
1046.31;  860.217;  193.483;  861.783; 0.00102
1046.85;  864.550;  200.483;  842.117;-0.01492
1047.40;  855.217;  202.483;  813.783;-0.02848
1047.94;  853.217;  215.150;  808.783;-0.03135
1048.48;  839.883;  211.150;  810.117;-0.02106
1049.03;  852.883;  214.483;  793.450;-0.04244
1049.57;  840.883;  229.150;  787.117;-0.03995
1050.11;  835.550;  222.817;  774.117;-0.04588
1050.66;  817.217;  218.483;  779.117;-0.02855
1051.20;  819.883;  206.483;  794.450;-0.01839
1051.74;  785.217;  200.817;  788.117; 0.00215
1052.29;  759.217;  200.150;  780.783; 0.01644
1052.83;  749.217;  199.150;  748.117;-0.00087
1053.37;  779.217;  224.817;  744.783;-0.02785
1053.92;  789.217;  234.150;  739.783;-0.04051
1054.46;  775.217;  236.483;  734.117;-0.03446
1055.00;  772.217;  231.483;  739.117;-0.02743
1055.55;  777.883;  230.817;  738.117;-0.03278
1056.09;  770.883;  223.817;  747.783;-0.01874
1056.63;  741.883;  215.817;  711.783;-0.02559
1057.17;  730.883;  216.483;  709.117;-0.01878
1057.72;  750.217;  225.150;  697.450;-0.04600
1058.26;  735.883;  223.483;  705.783;-0.02629
1058.80;  731.550;  229.817;  700.450;-0.02779
1059.35;  710.217;  230.483;  686.450;-0.02207
1059.89;  703.883;  230.150;  672.450;-0.02982
1060.43;  681.550;  227.817;  654.783;-0.02641
1060.97;  647.883;  223.817;  667.117; 0.01926
1061.52;  644.550;  231.150;  682.450; 0.03809
1062.06;  645.883;  231.483;  671.450; 0.02600
1062.60;  653.883;  236.483;  658.450; 0.00473
1063.14;  653.883;  232.483;  640.783;-0.01372
1063.69;  640.550;  216.483;  640.117;-0.00044
1064.23;  621.550;  208.817;  619.783;-0.00186
1064.77;  604.883;  200.483;  598.450;-0.00696
1065.31;  590.883;  201.817;  577.450;-0.01526
1065.85;  597.550;  206.483;  567.117;-0.03518
1066.40;  604.217;  205.150;  579.450;-0.02783
1066.94;  611.217;  217.817;  579.117;-0.03697
1067.48;  610.883;  209.150;  587.783;-0.02572
1068.02;  578.550;  233.817;  562.450;-0.02077
1068.56;  557.217;  216.817;  564.783; 0.00955
1069.10;  530.550;  212.817;  549.783; 0.02552
1069.65;  549.550;  195.817;  566.450; 0.02027
1070.19;  559.550;  208.817;  566.783; 0.00887
1070.73;  576.217;  223.817;  582.783; 0.00802
1071.27;  572.883;  215.817;  567.117;-0.00707
1071.81;  565.550;  207.150;  562.117;-0.00418
1072.35;  576.217;  201.817;  549.117;-0.03263
1072.90;  555.883;  197.150;  546.783;-0.01116
1073.44;  554.217;  202.817;  540.117;-0.01779
1073.98;  543.883;  206.150;  531.450;-0.01629
1074.52;  561.550;  224.483;  538.783;-0.03037
1075.06;  555.550;  218.483;  542.450;-0.01722
1075.60;  528.883;  207.483;  531.450; 0.00345
1076.14;  525.217;  204.817;  514.117;-0.01531
1076.68;  521.883;  207.150;  504.450;-0.02475
1077.22;  545.217;  225.817;  504.783;-0.05878
1077.76;  534.217;  214.817;  498.117;-0.05209
1078.31;  530.883;  229.817;  499.783;-0.04735
1078.85;  519.883;  226.483;  517.117;-0.00411
1079.39;  518.217;  243.817;  525.450; 0.01130
1079.93;  520.550;  237.817;  507.783;-0.02007
1080.47;  512.217;  227.483;  476.450;-0.05830
1081.01;  511.217;  216.150;  474.783;-0.05724
1081.55;  505.883;  208.483;  488.783;-0.02572
1082.09;  517.217;  205.817;  488.783;-0.04158
1082.63;  517.883;  210.150;  496.450;-0.03135
1083.17;  536.217;  221.150;  500.783;-0.05181
1083.71;  522.883;  228.817;  501.450;-0.03287
1084.25;  511.550;  224.483;  471.117;-0.06593
1084.79;  485.217;  214.483;  446.450;-0.06712
1085.33;  486.217;  202.817;  450.783;-0.05801
1085.87;  495.217;  199.483;  468.450;-0.04120
1086.41;  491.217;  214.483;  471.450;-0.03218
1086.95;  478.217;  222.150;  467.117;-0.01925
1087.49;  470.550;  225.817;  454.783;-0.02892
1088.03;  469.883;  216.817;  454.117;-0.02794
1088.57;  476.550;  219.817;  450.783;-0.04593
1089.11;  466.550;  222.150;  448.117;-0.03406
1089.65;  482.550;  233.150;  458.783;-0.04349
1090.19;  489.217;  238.483;  468.117;-0.03818
1090.73;  492.217;  240.483;  471.783;-0.03677
1091.27;  486.217;  238.817;  466.117;-0.03680
1091.81;  474.550;  238.483;  458.117;-0.03134
1092.35;  491.217;  247.483;  461.450;-0.05657
1092.89;  479.217;  232.150;  457.450;-0.04005
1093.43;  472.883;  223.817;  445.783;-0.05003
1093.97;  450.550;  210.150;  441.117;-0.01739
1094.51;  438.217;  208.483;  440.450; 0.00420
1095.04;  433.217;  218.483;  442.783; 0.01893
1095.58;  437.883;  238.817;  436.783;-0.00241
1096.12;  447.217;  242.817;  428.783;-0.04105
1096.66;  457.883;  239.817;  430.450;-0.05839
1097.20;  457.550;  235.817;  449.450;-0.01616
1097.74;  457.883;  246.817;  456.783;-0.00227
1098.28;  460.217;  235.817;  457.117;-0.00604
1098.82;  452.217;  230.483;  453.117; 0.00176
1099.36;  457.550;  228.150;  446.450;-0.02154
1099.89;  451.550;  230.150;  447.450;-0.00812

