
Integration time [ms]:   0.300
Averaging Nr. [scans]: 1
Smoothing Nr. [pixels]: 1
Data measured with spectrometer [name]: 1906252U1
Wave   ;Sample   ;Dark     ;Reference;Absorbance
[nm]   ;[counts] ;[counts] ;[counts] ;[A.U]

 161.30;  288.791;  271.207;  271.637; 0.00000
 161.90;  270.167;  265.524;  261.712; 0.00000
 162.51;  258.875;  259.038;  260.433; 5.00000
 163.11;  251.617;  265.693;  251.834; 0.00000
 163.71;  271.249;  276.696;  266.803; 0.00000
 164.31;  282.925;  294.270;  273.488; 0.00000
 164.91;  283.853;  288.393;  287.410; 0.00000
 165.52;  276.714;  277.299;  279.261; 5.00000
 166.12;  285.188;  271.979;  273.718;-0.88073
 166.72;  284.228;  272.971;  259.755; 0.00000
 167.32;  288.843;  271.656;  271.040; 0.00000
 167.93;  271.332;  261.266;  267.518;-0.20683
 168.53;  263.438;  254.112;  260.296;-0.17844
 169.13;  264.063;  264.427;  257.261; 0.00000
 169.73;  274.820;  271.677;  266.351; 0.00000
 170.33;  298.968;  291.614;  320.561; 0.59509
 170.94;  308.365;  317.756;  347.746; 5.00000
 171.54;  320.780;  335.278;  387.239; 5.00000
 172.14;  340.072;  338.926;  375.538; 1.50437
 172.74;  356.391;  324.358;  373.181; 0.18302
 173.34;  357.440;  319.589;  355.569;-0.02202
 173.95;  342.464;  309.596;  343.923; 0.01886
 174.55;  331.435;  318.289;  355.228; 0.44867
 175.15;  337.362;  320.689;  367.155; 0.44513
 175.75;  343.075;  322.370;  380.195; 0.44603
 176.35;  351.236;  332.415;  382.036; 0.42103
 176.95;  351.757;  327.740;  392.907; 0.43351
 177.56;  351.536;  327.608;  398.355; 0.47081
 178.16;  342.821;  316.738;  399.298; 0.50042
 178.76;  342.354;  316.306;  398.487; 0.49899
 179.36;  337.555;  310.874;  401.343; 0.53030
 179.96;  345.365;  304.800;  395.813; 0.35095
 180.56;  341.516;  308.938;  392.969; 0.41151
 181.17;  358.648;  318.009;  403.448; 0.32271
 181.77;  369.376;  318.897;  417.181; 0.28937
 182.37;  373.308;  306.653;  404.111; 0.16498
 182.97;  377.320;  319.309;  413.789; 0.21183
 183.57;  385.479;  323.525;  427.944; 0.22671
 184.17;  419.311;  336.736;  473.104; 0.21787
 184.78;  432.131;  316.624;  484.587; 0.16260
 185.38;  442.040;  315.012;  504.833; 0.17445
 185.98;  453.500;  315.783;  504.638; 0.13714
 186.58;  459.640;  316.598;  510.449; 0.13200
 187.18;  462.532;  313.002;  491.678; 0.07734
 187.78;  471.921;  324.256;  526.070; 0.13567
 188.38;  489.678;  331.840;  541.159; 0.12260
 188.98;  510.718;  337.804;  574.199; 0.13581
 189.59;  521.393;  332.575;  567.529; 0.09494
 190.19;  536.257;  326.870;  580.708; 0.08361
 190.79;  515.147;  326.914;  573.939; 0.11805
 191.39;  482.151;  317.159;  564.285; 0.17546
 191.99;  463.905;  322.498;  545.363; 0.19757
 192.59;  470.477;  317.307;  539.929; 0.16240
 193.19;  474.581;  313.765;  525.712; 0.11990
 193.79;  484.478;  325.164;  530.280; 0.10974
 194.39;  473.539;  328.250;  517.658; 0.11517
 195.00;  468.034;  327.216;  511.139; 0.11598
 195.60;  437.620;  305.566;  480.732; 0.12270
 196.20;  424.685;  304.088;  469.473; 0.13716
 196.80;  408.206;  305.278;  453.989; 0.15981
 197.40;  399.063;  313.686;  455.186; 0.21942
 198.00;  397.327;  320.693;  452.457; 0.23537
 198.60;  390.820;  317.270;  442.943; 0.23265
 199.20;  384.399;  312.435;  427.513; 0.20388
 199.80;  366.650;  303.957;  416.753; 0.25507
 200.40;  350.763;  299.492;  396.868; 0.27858
 201.00;  329.320;  293.841;  371.434; 0.33986
 201.60;  321.952;  292.845;  340.403; 0.21323
 202.21;  319.454;  298.995;  352.240; 0.41540
 202.81;  326.773;  303.760;  367.883; 0.44505
 203.41;  319.820;  301.801;  377.921; 0.62576
 204.01;  320.510;  296.447;  373.611; 0.50607
 204.61;  325.036;  287.965;  374.799; 0.36965
 205.21;  332.576;  280.528;  391.328; 0.32813
 205.81;  349.487;  276.000;  394.567; 0.20775
 206.41;  335.582;  281.190;  389.667; 0.29980
 207.01;  342.087;  291.585;  373.516; 0.21014
 207.61;  317.453;  290.832;  349.221; 0.34111
 208.21;  328.991;  294.007;  340.088; 0.11965
 208.81;  326.951;  285.376;  350.048; 0.19188
 209.41;  326.845;  292.971;  355.294; 0.26478
 210.01;  312.039;  286.985;  361.835; 0.47531
 210.61;  326.532;  290.534;  351.990; 0.23229
 211.21;  333.439;  293.399;  356.219; 0.19561
 211.81;  331.494;  300.157;  352.258; 0.22080
 212.41;  313.081;  301.896;  344.513; 0.58095
 213.01;  304.846;  296.332;  351.625; 0.81254
 213.61;  316.890;  285.263;  357.339; 0.35773
 214.21;  314.305;  282.939;  368.411; 0.43537
 214.81;  327.957;  278.704;  361.387; 0.22499
 215.41;  334.218;  282.466;  362.645; 0.19014
 216.01;  320.093;  278.247;  362.189; 0.30232
 216.61;  309.023;  287.920;  357.792; 0.51996
 217.21;  285.948;  290.599;  357.391; 5.00000
 217.81;  299.362;  297.221;  367.800; 1.51811
 218.41;  307.978;  301.628;  379.081; 1.08628
 219.01;  331.394;  307.801;  388.505; 0.53412
 219.61;  322.129;  301.739;  384.906; 0.61054
 220.21;  310.742;  297.568;  378.507; 0.78844
 220.81;  302.286;  283.737;  372.713; 0.68096
 221.41;  313.263;  284.091;  376.024; 0.49851
 222.01;  314.625;  280.426;  372.049; 0.42799
 222.61;  306.352;  298.953;  367.451; 0.96652
 223.21;  299.985;  301.813;  357.103; 5.00000
 223.81;  307.230;  301.952;  360.676; 1.04633
 224.41;  301.530;  281.875;  343.618; 0.49712
 225.01;  306.171;  269.317;  340.250; 0.28437
 225.61;  295.942;  274.108;  341.033; 0.48646
 226.21;  311.481;  273.112;  349.918; 0.30142
 226.81;  301.067;  286.490;  349.175; 0.63350
 227.41;  311.175;  284.059;  344.282; 0.34653
 228.01;  314.143;  302.172;  351.241; 0.61269
 228.61;  332.057;  306.727;  360.474; 0.32672
 229.21;  317.616;  303.825;  362.700; 0.63035
 229.81;  323.698;  308.998;  372.791; 0.63745
 230.41;  330.636;  299.055;  383.396; 0.42661
 231.01;  344.511;  300.808;  405.942; 0.38124
 231.61;  331.663;  287.307;  401.095; 0.40915
 232.21;  328.066;  300.328;  383.489; 0.47684
 232.81;  330.182;  296.307;  370.928; 0.34298
 233.41;  325.250;  302.578;  372.995; 0.49219
 234.00;  322.163;  298.240;  379.918; 0.53329
 234.60;  309.862;  290.487;  363.623; 0.57689
 235.20;  319.833;  295.152;  359.264; 0.41458
 235.80;  317.002;  295.330;  365.432; 0.50982
 236.40;  337.620;  302.765;  379.044; 0.34014
 237.00;  348.392;  303.584;  384.824; 0.25842
 237.60;  331.541;  294.000;  377.651; 0.34796
 238.20;  320.440;  295.121;  389.214; 0.57011
 238.80;  296.907;  274.112;  389.668; 0.70495
 239.40;  316.657;  279.177;  403.402; 0.52041
 240.00;  321.561;  284.599;  402.640; 0.50428
 240.59;  330.884;  298.133;  401.312; 0.49836
 241.19;  337.312;  297.989;  399.745; 0.41291
 241.79;  321.951;  288.710;  384.715; 0.46061
 242.39;  329.484;  292.222;  383.909; 0.39105
 242.99;  323.358;  286.642;  375.121; 0.38198
 243.59;  325.321;  289.230;  388.763; 0.44056
 244.19;  315.459;  286.160;  385.560; 0.53054
 244.79;  303.897;  287.511;  384.652; 0.77292
 245.39;  316.468;  287.293;  395.554; 0.56946
 245.98;  311.700;  273.053;  391.453; 0.48624
 246.58;  313.862;  274.487;  389.290; 0.46473
 247.18;  322.261;  285.342;  384.364; 0.42848
 247.78;  320.664;  295.696;  398.758; 0.61571
 248.38;  330.405;  288.656;  421.162; 0.50158
 248.98;  318.881;  277.356;  419.988; 0.53590
 249.58;  325.231;  265.673;  430.671; 0.44254
 250.17;  322.082;  275.285;  426.842; 0.51035
 250.77;  312.540;  283.143;  431.967; 0.70438
 251.37;  309.316;  286.929;  425.089; 0.79038
 251.97;  309.042;  270.293;  429.805; 0.61453
 252.57;  322.463;  265.298;  436.882; 0.47735
 253.17;  331.743;  272.929;  449.172; 0.47663
 253.77;  340.857;  284.186;  466.282; 0.50694
 254.36;  349.363;  295.474;  468.774; 0.50730
 254.96;  347.820;  295.333;  480.567; 0.54766
 255.56;  345.888;  288.604;  484.301; 0.53355
 256.16;  338.772;  278.462;  506.509; 0.57764
 256.76;  345.704;  277.524;  496.109; 0.50597
 257.36;  349.869;  276.735;  508.603; 0.50112
 257.95;  331.650;  264.992;  503.713; 0.55404
 258.55;  310.015;  264.239;  518.084; 0.74393
 259.15;  309.722;  260.564;  510.454; 0.70615
 259.75;  320.931;  269.345;  523.998; 0.69341
 260.35;  334.223;  267.461;  538.318; 0.60821
 260.94;  314.980;  268.819;  539.764; 0.76861
 261.54;  327.326;  275.530;  547.771; 0.72066
 262.14;  335.998;  279.723;  553.422; 0.68696
 262.74;  361.759;  296.084;  592.169; 0.65402
 263.34;  358.188;  285.302;  604.600; 0.64155
 263.93;  347.127;  271.414;  619.201; 0.66214
 264.53;  354.042;  269.158;  628.783; 0.62703
 265.13;  344.146;  270.950;  628.566; 0.68892
 265.73;  345.718;  275.426;  648.466; 0.72485
 266.33;  338.992;  278.566;  678.397; 0.82065
 266.92;  331.277;  275.029;  689.673; 0.86757
 267.52;  323.660;  279.954;  705.726; 0.98864
 268.12;  315.531;  273.264;  717.281; 1.02139
 268.72;  321.082;  281.951;  749.175; 1.07700
 269.31;  341.743;  293.596;  782.505; 1.00666
 269.91;  336.931;  296.813;  783.686; 1.08408
 270.51;  354.342;  298.884;  823.747; 0.97608
 271.11;  347.288;  296.018;  844.685; 1.02945
 271.70;  353.613;  281.274;  877.686; 0.91617
 272.30;  336.168;  270.568;  887.924; 0.97363
 272.90;  335.994;  264.784;  909.412; 0.95676
 273.50;  343.450;  274.785;  916.521; 0.97062
 274.09;  362.459;  285.359;  947.539; 0.93392
 274.69;  365.930;  293.425;  961.690; 0.96458
 275.29;  359.954;  297.126; 1011.041; 1.05549
 275.89;  367.100;  301.162; 1057.168; 1.05939
 276.48;  389.314;  306.441; 1108.365; 0.98572
 277.08;  414.288;  303.217; 1149.330; 0.88183
 277.68;  414.213;  300.562; 1156.928; 0.87709
 278.28;  412.349;  297.934; 1188.748; 0.89130
 278.87;  405.479;  305.120; 1219.213; 0.95944
 279.47;  435.295;  316.402; 1279.019; 0.90830
 280.07;  430.149;  311.564; 1306.537; 0.92378
 280.66;  453.413;  305.599; 1329.806; 0.84067
 281.26;  463.883;  299.502; 1356.605; 0.80826
 281.86;  497.077;  299.353; 1408.460; 0.74892
 282.46;  486.946;  289.111; 1464.667; 0.77394
 283.05;  483.795;  270.001; 1525.842; 0.76894
 283.65;  478.202;  269.267; 1577.248; 0.79659
 284.25;  483.629;  276.537; 1628.707; 0.81487
 284.84;  491.060;  297.639; 1660.819; 0.84805
 285.44;  520.940;  304.585; 1722.349; 0.81644
 286.04;  546.895;  306.626; 1767.304; 0.78386
 286.63;  574.795;  299.604; 1827.551; 0.74447
 287.23;  571.497;  285.934; 1878.582; 0.74642
 287.83;  603.896;  285.987; 1956.635; 0.72058
 288.42;  608.730;  282.947; 2012.456; 0.72500
 289.02;  626.621;  281.018; 2081.351; 0.71678
 289.62;  624.288;  274.153; 2105.373; 0.71851
 290.21;  668.129;  278.965; 2173.882; 0.68746
 290.81;  722.760;  296.139; 2171.832; 0.64312
 291.41;  737.540;  301.675; 2217.279; 0.64295
 292.00;  734.850;  287.695; 2273.257; 0.64743
 292.60;  730.842;  266.816; 2355.570; 0.65335
 293.20;  759.552;  269.053; 2441.953; 0.64640
 293.79;  779.458;  275.331; 2498.541; 0.64444
 294.39;  810.371;  284.326; 2544.463; 0.63311
 294.99;  836.011;  280.435; 2588.095; 0.61843
 295.58;  878.224;  284.687; 2619.961; 0.59489
 296.18;  885.835;  271.100; 2672.236; 0.59173
 296.78;  900.790;  267.474; 2741.524; 0.59179
 297.37;  926.172;  256.039; 2819.912; 0.58274
 297.97;  981.370;  255.858; 2927.442; 0.56612
 298.57; 1044.150;  262.727; 2989.557; 0.54277
 299.16; 1078.699;  278.359; 3083.789; 0.54472
 299.76; 1122.275;  281.775; 3176.366; 0.53705
 300.35; 1132.617;  281.214; 3269.362; 0.54527
 300.95; 1163.712;  278.404; 3324.462; 0.53664
 301.55; 1190.748;  287.229; 3346.846; 0.52973
 302.14; 1244.593;  278.314; 3431.366; 0.51363
 302.74; 1283.091;  277.164; 3537.862; 0.51074
 303.33; 1316.477;  277.506; 3665.575; 0.51335
 303.93; 1346.847;  284.053; 3763.621; 0.51508
 304.53; 1385.964;  290.889; 3809.743; 0.50696
 305.12; 1417.968;  285.666; 3889.067; 0.50275
 305.72; 1492.652;  304.345; 3962.749; 0.48836
 306.31; 1564.391;  292.556; 4062.826; 0.47194
 306.91; 1632.469;  290.122; 4183.574; 0.46247
 307.51; 1648.968;  280.000; 4278.734; 0.46553
 308.10; 1668.618;  295.710; 4394.048; 0.47497
 308.70; 1712.303;  291.190; 4468.751; 0.46829
 309.29; 1765.693;  287.634; 4547.826; 0.45974
 309.89; 1817.556;  264.902; 4638.675; 0.44978
 310.48; 1854.658;  273.673; 4739.754; 0.45100
 311.08; 1920.685;  268.620; 4876.118; 0.44544
 311.68; 1964.935;  273.221; 4959.384; 0.44249
 312.27; 2009.835;  278.703; 5074.278; 0.44251
 312.87; 2008.080;  271.869; 5225.848; 0.45535
 313.46; 2083.910;  276.691; 5385.013; 0.45127
 314.06; 2145.787;  276.193; 5529.885; 0.44872
 314.65; 2254.800;  282.238; 5632.559; 0.43335
 315.25; 2290.502;  283.262; 5774.255; 0.43705
 315.85; 2344.457;  277.637; 5914.876; 0.43576
 316.44; 2403.186;  287.913; 6071.938; 0.43686
 317.04; 2447.239;  295.255; 6216.984; 0.43961
 317.63; 2522.920;  310.823; 6400.341; 0.43978
 318.23; 2569.859;  298.737; 6546.296; 0.43947
 318.82; 2661.121;  293.221; 6674.883; 0.43057
 319.42; 2711.123;  273.276; 6781.545; 0.42646
 320.01; 2801.876;  280.055; 6929.646; 0.42108
 320.61; 2869.897;  290.511; 7164.652; 0.42570
 321.20; 2934.875;  285.758; 7272.939; 0.42120
 321.80; 2984.640;  292.860; 7497.718; 0.42759
 322.39; 3046.435;  275.154; 7636.540; 0.42428
 322.99; 3127.445;  275.755; 7857.556; 0.42467
 323.58; 3205.772;  286.597; 7977.531; 0.42072
 324.18; 3255.595;  287.901; 8124.673; 0.42172
 324.77; 3318.259;  292.485; 8318.013; 0.42364
 325.37; 3367.744;  278.984; 8442.167; 0.42208
 325.96; 3447.543;  276.253; 8588.958; 0.41851
 326.56; 3573.345;  298.768; 8771.095; 0.41285
 327.15; 3676.354;  300.036; 8947.778; 0.40846
 327.75; 3782.444;  300.925; 9129.536; 0.40412
 328.34; 3810.091;  272.723; 9291.838; 0.40648
 328.94; 3861.167;  266.072; 9447.905; 0.40722
 329.53; 3930.806;  277.765; 9658.876; 0.40960
 330.13; 4016.046;  293.098; 9872.460; 0.41045
 330.72; 4038.468;  297.428;10112.576; 0.41890
 331.32; 4146.962;  296.807;10347.750; 0.41673
 331.91; 4250.945;  286.021;10578.045; 0.41427
 332.51; 4469.019;  290.846;10832.428; 0.40192
 333.10; 4539.613;  280.941;11112.686; 0.40542
 333.69; 4602.459;  268.720;11343.870; 0.40749
 334.29; 4584.891;  259.020;11372.294; 0.40977
 334.88; 4594.493;  263.526;11404.218; 0.41033
 335.48; 4607.112;  274.151;11347.513; 0.40749
 336.07; 4603.968;  277.361;11521.065; 0.41476
 336.67; 4650.008;  271.793;11561.792; 0.41140
 337.26; 4677.290;  270.478;11724.744; 0.41484
 337.86; 4758.307;  274.661;11795.073; 0.40984
 338.45; 4803.127;  285.081;11996.201; 0.41365
 339.04; 4891.975;  280.248;12122.714; 0.40958
 339.64; 4977.760;  279.247;12324.855; 0.40887
 340.23; 5028.462;  276.541;12444.594; 0.40835
 340.83; 5089.535;  283.446;12579.002; 0.40796
 341.42; 5128.992;  284.034;12728.085; 0.40967
 342.02; 5166.299;  280.810;12860.717; 0.41077
 342.61; 5235.385;  285.029;12994.842; 0.40950
 343.20; 5274.223;  280.703;13173.363; 0.41194
 343.80; 5383.391;  275.024;13326.514; 0.40738
 344.39; 5402.998;  277.525;13574.777; 0.41403
 344.99; 5504.139;  284.701;13698.586; 0.40993
 345.58; 5514.218;  281.629;13941.331; 0.41672
 346.17; 5575.503;  272.425;14086.941; 0.41581
 346.77; 5606.070;  263.601;14425.499; 0.42338
 347.36; 5693.315;  267.766;14640.403; 0.42309
 347.96; 5785.655;  271.456;14918.073; 0.42425
 348.55; 5855.653;  272.039;15018.413; 0.42177
 349.14; 5985.499;  269.152;15148.264; 0.41546
 349.74; 6149.880;  282.193;15379.635; 0.41044
 350.33; 6278.531;  292.264;15619.281; 0.40830
 350.92; 6338.664;  292.029;15990.758; 0.41435
 351.52; 6372.617;  276.988;16197.719; 0.41694
 352.11; 6467.932;  277.642;16449.038; 0.41704
 352.70; 6586.362;  293.221;16652.467; 0.41490
 353.30; 6675.923;  299.069;16923.354; 0.41614
 353.89; 6713.391;  289.556;17199.826; 0.42036
 354.49; 6780.016;  295.537;17471.125; 0.42304
 355.08; 6861.469;  303.789;17648.240; 0.42241
 355.67; 6977.775;  306.509;17850.877; 0.41993
 356.27; 7050.652;  292.678;18013.082; 0.41866
 356.86; 7118.285;  288.376;18230.048; 0.41945
 357.45; 7223.900;  297.756;18507.331; 0.41981
 358.05; 7314.858;  297.214;18684.613; 0.41833
 358.64; 7357.207;  292.504;18894.298; 0.42046
 359.23; 7439.732;  289.300;19081.825; 0.41965
 359.83; 7493.293;  289.121;19433.380; 0.42445
 360.42; 7606.172;  293.174;19722.600; 0.42436
 361.01; 7672.067;  287.355;19981.487; 0.42600
 361.61; 7788.457;  287.502;20183.522; 0.42365
 362.20; 7854.655;  294.987;20496.718; 0.42689
 362.79; 7907.887;  302.910;20634.303; 0.42707
 363.38; 7939.755;  301.613;20815.514; 0.42906
 363.98; 7969.967;  289.171;20943.715; 0.42961
 364.57; 8017.069;  277.744;21176.149; 0.43141
 365.16; 8074.070;  288.573;21351.502; 0.43223
 365.76; 8180.847;  293.720;21537.287; 0.43031
 366.35; 8255.450;  294.920;21731.542; 0.43021
 366.94; 8368.047;  286.459;21913.791; 0.42751
 367.53; 8432.718;  286.426;22067.466; 0.42712
 368.13; 8509.400;  291.994;22246.489; 0.42679
 368.72; 8508.201;  285.482;22413.295; 0.42992
 369.31; 8569.598;  292.281;22597.374; 0.43051
 369.91; 8578.760;  283.382;22746.877; 0.43264
 370.50; 8687.963;  291.699;22820.059; 0.42864
 371.09; 8765.832;  278.017;22946.909; 0.42663
 371.68; 8856.585;  286.967;23106.324; 0.42534
 372.28; 8944.837;  294.984;23340.584; 0.42558
 372.87; 9024.752;  297.367;23443.502; 0.42359
 373.46; 9107.851;  297.723;23614.255; 0.42268
 374.05; 9177.096;  287.889;23758.158; 0.42166
 374.65; 9172.765;  290.440;23950.173; 0.42548
 375.24; 9168.940;  272.918;24146.349; 0.42872
 375.83; 9171.289;  275.848;24331.370; 0.43205
 376.42; 9301.132;  273.516;24515.563; 0.42900
 377.02; 9423.403;  293.907;24527.502; 0.42397
 377.61; 9519.574;  288.112;24762.668; 0.42344
 378.20; 9570.034;  297.747;24944.118; 0.42457
 378.79; 9637.803;  297.015;25086.217; 0.42388
 379.38; 9740.037;  282.191;25204.109; 0.42079
 379.98; 9792.407;  267.243;25344.469; 0.42041
 380.57; 9900.000;  272.112;25606.751; 0.42018
 381.16; 9955.697;  291.609;25727.129; 0.42028
 381.75;10048.719;  289.589;25767.151; 0.41675
 382.35;10106.168;  283.703;25937.612; 0.41693
 382.94;10208.591;  271.231;26182.039; 0.41621
 383.53;10348.648;  279.541;26558.760; 0.41662
 384.12;10511.193;  269.432;26865.627; 0.41444
 384.71;10613.923;  284.069;27028.687; 0.41314
 385.31;10682.443;  287.699;27353.893; 0.41561
 385.90;10761.316;  299.731;27598.110; 0.41654
 386.49;10886.874;  283.306;27919.987; 0.41603
 387.08;11025.164;  296.763;28085.602; 0.41334
 387.67;11125.824;  302.047;28384.267; 0.41405
 388.26;11274.640;  312.463;28670.094; 0.41277
 388.86;11454.983;  297.866;29041.131; 0.41098
 389.45;11646.143;  285.685;29324.329; 0.40758
 390.04;11778.309;  279.860;29566.863; 0.40604
 390.63;11901.760;  284.795;29878.048; 0.40610
 391.22;11962.116;  294.422;30097.179; 0.40727
 391.81;12066.257;  303.408;30368.117; 0.40754
 392.41;12166.288;  324.211;30517.642; 0.40648
 393.00;12402.398;  349.022;30747.606; 0.40174
 393.59;12555.461;  379.676;31111.212; 0.40209
 394.18;12707.538;  399.780;31505.223; 0.40266
 394.77;12803.589;  433.703;31930.599; 0.40590
 395.36;12985.312;  473.557;32244.356; 0.40471
 395.95;13143.583;  524.323;32561.017; 0.40461
 396.55;13284.273;  566.236;32856.406; 0.40465
 397.14;13418.262;  594.577;33298.717; 0.40659
 397.73;13613.254;  601.786;33627.642; 0.40453
 398.32;13839.182;  612.294;34204.404; 0.40478
 398.91;14073.392;  621.039;34614.988; 0.40260
 399.50;14310.206;  632.059;35200.379; 0.40265
 400.09;14605.332;  605.452;35675.306; 0.39881
 400.68;14889.067;  582.293;36366.134; 0.39815
 401.27;15159.181;  548.561;37014.694; 0.39722
 401.87;15384.995;  525.771;37604.957; 0.39713
 402.46;15690.118;  501.053;38119.893; 0.39387
 403.05;15949.586;  484.389;38675.942; 0.39261
 403.64;16239.449;  490.521;39240.769; 0.39102
 404.23;16429.790;  484.797;39841.080; 0.39239
 404.82;16747.081;  502.588;40438.695; 0.39066
 405.41;16956.888;  491.629;41140.816; 0.39248
 406.00;17288.766;  497.890;41752.976; 0.39040
 406.59;17510.665;  479.966;42383.807; 0.39102
 407.18;17828.628;  482.149;42943.385; 0.38878
 407.77;18099.950;  466.520;43500.038; 0.38747
 408.37;18406.904;  484.641;43973.019; 0.38498
 408.96;18700.081;  491.806;44465.898; 0.38293
 409.55;18867.139;  504.476;44970.283; 0.38409
 410.14;18968.014;  481.626;45459.452; 0.38615
 410.73;19168.704;  490.299;45905.805; 0.38586
 411.32;19437.646;  492.855;46441.730; 0.38479
 411.91;19788.504;  505.687;47060.216; 0.38279
 412.50;19943.276;  480.732;47624.639; 0.38423
 413.09;20073.074;  484.505;48110.411; 0.38584
 413.68;20201.604;  482.467;48573.257; 0.38717
 414.27;20361.265;  487.472;48936.919; 0.38701
 414.86;20595.995;  462.470;49236.309; 0.38427
 415.45;20744.453;  452.555;49687.411; 0.38495
 416.04;20938.798;  462.743;50083.734; 0.38442
 416.63;21065.674;  468.551;50542.275; 0.38580
 417.22;21203.422;  461.867;50754.683; 0.38466
 417.81;21312.227;  462.159;51068.477; 0.38510
 418.40;21421.432;  476.694;51393.675; 0.38579
 418.99;21658.622;  477.832;51737.830; 0.38384
 419.58;21848.873;  462.218;51969.382; 0.38172
 420.17;21969.893;  452.952;52248.392; 0.38151
 420.76;22053.681;  458.593;52499.836; 0.38199
 421.35;22125.946;  472.988;53005.769; 0.38491
 421.94;22177.015;  474.287;53203.501; 0.38554
 422.53;22153.160;  469.601;53402.299; 0.38759
 423.12;22129.701;  471.552;53493.823; 0.38884
 423.71;22216.091;  463.366;53670.857; 0.38846
 424.30;22248.105;  471.573;53819.883; 0.38913
 424.89;22348.241;  477.611;53888.037; 0.38776
 425.48;22316.588;  477.854;53974.356; 0.38910
 426.07;22328.624;  465.438;53940.695; 0.38844
 426.66;22225.120;  460.097;54040.507; 0.39125
 427.25;22206.730;  453.014;53995.096; 0.39116
 427.84;22079.028;  450.549;53912.043; 0.39302
 428.43;22022.764;  452.848;53711.442; 0.39254
 429.02;22008.211;  457.772;53797.552; 0.39360
 429.61;21963.120;  448.720;53826.107; 0.39463
 430.20;21774.135;  425.820;53758.443; 0.39763
 430.79;21552.270;  437.001;53531.580; 0.40045
 431.38;21345.912;  442.471;53315.543; 0.40302
 431.97;21268.153;  451.391;53001.434; 0.40216
 432.55;21176.396;  445.807;52690.011; 0.40143
 433.14;21117.464;  441.412;52704.411; 0.40273
 433.73;20920.132;  432.971;52655.054; 0.40637
 434.32;20731.697;  424.624;52606.263; 0.40987
 434.91;20526.505;  423.161;52233.737; 0.41115
 435.50;20325.642;  418.064;51971.869; 0.41324
 436.09;20066.426;  418.432;51687.970; 0.41654
 436.68;19877.441;  422.559;51624.303; 0.42026
 437.27;19839.276;  439.214;51661.122; 0.42165
 437.86;19729.732;  433.576;51508.561; 0.42274
 438.45;19585.494;  436.794;51330.326; 0.42452
 439.04;19403.472;  419.148;51043.637; 0.42597
 439.62;19250.823;  412.025;51000.963; 0.42900
 440.21;19049.585;  413.441;50885.373; 0.43269
 440.80;18947.748;  430.263;51024.538; 0.43652
 441.39;18863.362;  449.560;51081.161; 0.43928
 441.98;18769.840;  447.874;51020.625; 0.44094
 442.57;18557.463;  436.530;50797.219; 0.44391
 443.16;18337.841;  425.660;50702.578; 0.44822
 443.75;18184.524;  431.481;50788.909; 0.45279
 444.33;18058.999;  435.018;50969.383; 0.45748
 444.92;17971.297;  440.355;50892.685; 0.45908
 445.51;17960.960;  417.614;50850.986; 0.45861
 446.10;17889.210;  410.612;51056.876; 0.46204
 446.69;17766.891;  404.712;51275.545; 0.46686
 447.28;17639.746;  420.929;51457.726; 0.47188
 447.87;17512.075;  412.657;51329.383; 0.47388
 448.45;17465.118;  413.036;51412.748; 0.47579
 449.04;17194.024;  390.874;51445.980; 0.48265
 449.63;17116.342;  386.972;51646.289; 0.48629
 450.22;16992.858;  381.501;51835.467; 0.49101
 450.81;17040.609;  386.090;52100.884; 0.49208
 451.40;16861.196;  391.666;52058.120; 0.49653
 451.98;16730.828;  398.229;52052.065; 0.50005
 452.57;16576.570;  403.856;52211.469; 0.50561
 453.16;16458.456;  401.626;52273.023; 0.50927
 453.75;16322.147;  391.994;52359.708; 0.51351
 454.34;16197.134;  388.814;52215.013; 0.51566
 454.93;16124.166;  395.232;52494.699; 0.52013
 455.51;16016.027;  391.805;52615.216; 0.52407
 456.10;15917.601;  402.670;52907.445; 0.52945
 456.69;15827.207;  396.116;53041.712; 0.53297
 457.28;15756.699;  403.304;53288.203; 0.53713
 457.87;15670.503;  395.902;53216.666; 0.53883
 458.45;15551.555;  396.108;53304.691; 0.54296
 459.04;15449.262;  388.965;53401.373; 0.54654
 459.63;15307.380;  395.666;53676.141; 0.55304
 460.22;15185.710;  396.420;53639.128; 0.55631
 460.80;15093.723;  400.600;53692.823; 0.55955
 461.39;15072.123;  392.483;53895.895; 0.56167
 461.98;15096.033;  393.792;54364.115; 0.56477
 462.57;15080.221;  398.874;54782.941; 0.56871
 463.16;15007.236;  397.668;55197.607; 0.57414
 463.74;14980.841;  387.726;55673.212; 0.57846
 464.33;14914.732;  376.102;56213.777; 0.58440
 464.92;14948.012;  370.427;56547.398; 0.58587
 465.51;14949.664;  357.831;56911.710; 0.58835
 466.09;15002.535;  358.204;57352.888; 0.59016
 466.68;15044.773;  361.518;57898.436; 0.59312
 467.27;15048.976;  372.331;58292.638; 0.59620
 467.86;14959.406;  368.243;58560.733; 0.60078
 468.44;14935.599;  363.094;58919.922; 0.60404
 469.03;14922.832;  361.882;59322.152; 0.60737
 469.62;14994.068;  367.807;59788.037; 0.60880
 470.20;15039.716;  365.300;60231.337; 0.61062
 470.79;15102.241;  374.762;60677.863; 0.61221
 471.38;15136.213;  358.816;61146.166; 0.61422
 471.97;15134.448;  359.020;61564.389; 0.61725
 472.55;15077.743;  350.111;61933.679; 0.62133
 473.14;15061.671;  362.234;62406.602; 0.62540
 473.73;15039.293;  355.473;62971.535; 0.62985
 474.31;15157.225;  347.428;63489.444; 0.62977
 474.90;15175.372;  350.797;63899.238; 0.63212
 475.49;15194.709;  352.737;64160.914; 0.63338
 476.07;15089.440;  357.870;64473.326; 0.63871
 476.66;15098.965;  347.892;64752.829; 0.64010
 477.25;15037.158;  340.581;65000.332; 0.64342
 477.84;15087.690;  352.761;65155.193; 0.64324
 478.42;15093.783;  344.733;65155.945; 0.64289
 479.01;15149.172;  344.681;65156.001; 0.64126
 479.60;15108.688;  330.210;65156.511; 0.64212
 480.18;15046.116;  334.265;65158.257; 0.64407
 480.77;15070.350;  342.135;65159.480; 0.64354
 481.35;15049.576;  347.900;65159.373; 0.64429
 481.94;15037.723;  344.738;65159.188; 0.64456
 482.53;14954.798;  335.059;65159.923; 0.64680
 483.11;14813.924;  332.000;65160.709; 0.65094
 483.70;14757.277;  318.067;65161.719; 0.65232
 484.29;14651.896;  316.585;65163.324; 0.65548
 484.87;14662.125;  306.461;65164.542; 0.65494
 485.46;14669.853;  315.710;65164.272; 0.65492
 486.05;14638.822;  319.958;65162.920; 0.65595
 486.63;14609.820;  321.237;65162.258; 0.65686
 487.22;14485.811;  317.302;65162.909; 0.66056
 487.81;14362.616;  323.288;65164.368; 0.66450
 488.39;14180.724;  331.856;65164.474; 0.67038
 488.98;14041.643;  337.207;65163.733; 0.67489
 489.56;13941.713;  317.228;65164.794; 0.67757
 490.15;13879.638;  310.772;65166.371; 0.67940
 490.74;13832.398;  302.771;65167.454; 0.68072
 491.32;13711.403;  305.937;65168.774; 0.68471
 491.91;13521.367;  316.111;64974.057; 0.68988
 492.49;13245.954;  317.823;64712.314; 0.69731
 493.08;13020.098;  332.939;64167.133; 0.70169
 493.67;12899.516;  325.500;63724.219; 0.70261
 494.25;12807.150;  343.920;63105.848; 0.70207
 494.84;12739.728;  335.724;62474.087; 0.69980
 495.42;12531.067;  338.386;61959.759; 0.70363
 496.01;12372.627;  319.873;61399.648; 0.70481
 496.59;12159.764;  310.443;60754.114; 0.70766
 497.18;12057.466;  311.106;60078.479; 0.70656
 497.77;11804.966;  311.733;59331.632; 0.71056
 498.35;11661.471;  326.966;58841.796; 0.71286
 498.94;11537.555;  324.499;58030.218; 0.71149
 499.52;11500.195;  324.914;57567.186; 0.70946
 500.11;11412.955;  311.275;56906.600; 0.70739
 500.69;11270.265;  304.601;56449.246; 0.70927
 501.28;11212.062;  315.149;55764.708; 0.70659
 501.86;11001.487;  317.653;55155.772; 0.71036
 502.45;10935.765;  338.264;54632.693; 0.70955
 503.03;10771.058;  328.939;54106.656; 0.71181
 503.62;10845.478;  339.385;53665.090; 0.70550
 504.20;10732.694;  326.215;53123.968; 0.70531
 504.79;10740.882;  326.766;52666.148; 0.70121
 505.37;10693.262;  326.582;52358.543; 0.70063
 505.96;10698.813;  332.269;51859.105; 0.69640
 506.55;10731.553;  327.706;51491.158; 0.69177
 507.13;10813.479;  315.837;51254.709; 0.68596
 507.72;10944.172;  312.954;51138.387; 0.67950
 508.30;11001.073;  319.265;50944.634; 0.67572
 508.89;11024.255;  316.460;50626.145; 0.67195
 509.47;11110.171;  308.593;50383.056; 0.66613
 510.05;11229.989;  311.037;50305.214; 0.66074
 510.64;11384.976;  312.992;50205.541; 0.65381
 511.22;11517.583;  326.961;50242.492; 0.64938
 511.81;11703.943;  323.186;50282.527; 0.64245
 512.39;11927.693;  329.747;50266.280; 0.63404
 512.98;12046.198;  310.647;50213.110; 0.62862
 513.56;12307.056;  306.947;50200.284; 0.61886
 514.15;12479.290;  297.484;50225.841; 0.61264
 514.73;12730.121;  293.306;50310.339; 0.60441
 515.32;12892.493;  298.909;50412.714; 0.59981
 515.90;13062.919;  306.909;50529.464; 0.59518
 516.49;13268.730;  321.223;50576.262; 0.58899
 517.07;13460.614;  323.415;50501.804; 0.58201
 517.66;13686.435;  325.663;50468.951; 0.57438
 518.24;13857.593;  330.491;50581.443; 0.56994
 518.82;14090.598;  322.791;50433.118; 0.56106
 519.41;14339.398;  321.449;50483.238; 0.55369
 519.99;14728.787;  304.901;50520.942; 0.54176
 520.58;15059.031;  313.039;50964.514; 0.53592
 521.16;15337.702;  316.114;51139.212; 0.52935
 521.75;15543.977;  315.579;51354.849; 0.52525
 522.33;15833.309;  314.722;51552.832; 0.51874
 522.91;16153.281;  303.280;51724.449; 0.51111
 523.50;16507.259;  304.661;51708.091; 0.50141
 524.08;16827.029;  292.957;51816.521; 0.49363
 524.67;17167.675;  296.699;52029.160; 0.48662
 525.25;17436.822;  294.898;52244.306; 0.48152
 525.83;17714.861;  300.195;52281.679; 0.47493
 526.42;17973.840;  299.604;52255.985; 0.46830
 527.00;18294.505;  297.414;52315.968; 0.46096
 527.59;18558.937;  293.742;52194.390; 0.45355
 528.17;18863.012;  296.702;52169.461; 0.44621
 528.75;19185.668;  314.407;52237.781; 0.43956
 529.34;19412.758;  317.963;52410.206; 0.43586
 529.92;19693.248;  322.096;52599.701; 0.43116
 530.50;19843.640;  308.099;52577.086; 0.42742
 531.09;20087.476;  310.277;52580.588; 0.42209
 531.67;20274.620;  319.699;52493.409; 0.41740
 532.25;20529.170;  331.224;52474.618; 0.41189
 532.84;20737.978;  319.265;52286.406; 0.40570
 533.42;20921.363;  303.579;52069.121; 0.39980
 534.00;21119.186;  296.379;51800.283; 0.39330
 534.59;21287.258;  306.923;51692.027; 0.38902
 535.17;21458.865;  307.396;51484.292; 0.38373
 535.75;21610.938;  311.833;51399.345; 0.37995
 536.34;21754.903;  327.170;51106.314; 0.37471
 536.92;21924.267;  323.362;50970.357; 0.37008
 537.50;21977.614;  320.767;50555.361; 0.36541
 538.09;22102.198;  304.234;50224.272; 0.35986
 538.67;22206.949;  307.957;49849.711; 0.35455
 539.25;22309.472;  292.004;49517.578; 0.34942
 539.84;22515.004;  298.382;49195.084; 0.34260
 540.42;22540.690;  287.620;48747.408; 0.33799
 541.00;22658.225;  304.712;48328.615; 0.33211
 541.59;22660.082;  293.453;47996.146; 0.32894
 542.17;22853.254;  303.713;47681.974; 0.32244
 542.75;22961.709;  301.687;47449.085; 0.31820
 543.33;23046.051;  321.928;47035.436; 0.31296
 543.92;23004.410;  322.791;46647.473; 0.31014
 544.50;23071.609;  319.637;46212.001; 0.30472
 545.08;23156.018;  303.653;45900.067; 0.30000
 545.67;23308.478;  304.594;45544.519; 0.29372
 546.25;23293.223;  306.855;45243.598; 0.29113
 546.83;23390.851;  305.919;44881.223; 0.28577
 547.41;23350.258;  307.185;44485.963; 0.28267
 548.00;23448.376;  304.048;44073.416; 0.27673
 548.58;23473.312;  293.554;43651.340; 0.27196
 549.16;23575.611;  273.252;43462.973; 0.26798
 549.74;23716.978;  276.221;43125.006; 0.26197
 550.33;23747.005;  287.338;42789.017; 0.25808
 550.91;23740.795;  287.502;42328.145; 0.25347
 551.49;23709.367;  275.114;42084.067; 0.25142
 552.07;23805.644;  281.527;41894.675; 0.24772
 552.66;23988.229;  296.715;41696.915; 0.24241
 553.24;24107.784;  301.874;41407.799; 0.23722
 553.82;24168.719;  287.046;41262.389; 0.23446
 554.40;24223.981;  287.502;41018.645; 0.23087
 554.98;24461.186;  286.839;40927.197; 0.22560
 555.57;24616.087;  295.511;40724.442; 0.22072
 556.15;24808.507;  295.794;40729.857; 0.21736
 556.73;24801.181;  289.872;40584.856; 0.21588
 557.31;24952.767;  280.087;40487.094; 0.21209
 557.89;25019.577;  267.680;40402.230; 0.20991
 558.48;25258.497;  270.725;40389.487; 0.20562
 559.06;25344.984;  269.279;40492.969; 0.20523
 559.64;25649.039;  288.172;40421.363; 0.19934
 560.22;25769.499;  308.276;40298.501; 0.19607
 560.80;26040.773;  311.749;40155.433; 0.18994
 561.39;26070.828;  300.174;40123.139; 0.18901
 561.97;26309.497;  304.256;40118.465; 0.18498
 562.55;26451.290;  305.864;40159.584; 0.18307
 563.13;26710.188;  307.652;40244.814; 0.17973
 563.71;26906.365;  295.320;40343.674; 0.17752
 564.29;27097.184;  296.315;40286.513; 0.17380
 564.88;27269.383;  280.495;40218.374; 0.17020
 565.46;27417.795;  277.260;40267.767; 0.16834
 566.04;27636.603;  269.464;40338.574; 0.16558
 566.62;27925.143;  292.162;40520.457; 0.16310
 567.20;28142.363;  292.265;40647.678; 0.16108
 567.78;28339.769;  300.170;40851.754; 0.16024
 568.36;28542.103;  300.837;41002.754; 0.15873
 568.94;28700.212;  296.460;41004.189; 0.15630
 569.53;28977.552;  295.816;41099.192; 0.15309
 570.11;29221.519;  283.902;41113.488; 0.14951
 570.69;29516.284;  278.869;41248.245; 0.14652
 571.27;29598.634;  279.854;41227.262; 0.14508
 571.85;29778.929;  279.584;41295.220; 0.14314
 572.43;29954.272;  299.078;41479.213; 0.14259
 573.01;30187.931;  288.199;41566.526; 0.14005
 573.59;30436.069;  284.931;41522.011; 0.13598
 574.17;30515.684;  270.419;41423.650; 0.13375
 574.76;30750.447;  278.826;41529.098; 0.13153
 575.34;30896.345;  274.920;41725.997; 0.13151
 575.92;31100.539;  271.771;41808.186; 0.12947
 576.50;31332.187;  265.398;41828.507; 0.12641
 577.08;31511.730;  261.206;41866.048; 0.12429
 577.66;31832.052;  250.776;41875.013; 0.11992
 578.24;31781.209;  252.747;41879.155; 0.12067
 578.82;31754.298;  257.942;41897.583; 0.12125
 579.40;31810.258;  266.978;41903.210; 0.12056
 579.98;31910.010;  273.567;41841.961; 0.11858
 580.56;32100.031;  281.852;41853.319; 0.11612
 581.14;32283.878;  291.659;41917.834; 0.11432
 581.72;32513.625;  280.280;42082.244; 0.11289
 582.30;32672.193;  273.151;42074.467; 0.11066
 582.88;32733.679;  274.650;42152.288; 0.11065
 583.46;32994.535;  282.363;42189.821; 0.10758
 584.04;33308.492;  282.956;42171.457; 0.10324
 584.62;33443.516;  265.125;42197.830; 0.10170
 585.21;33469.123;  267.265;42241.428; 0.10182
 585.79;33448.713;  273.754;42392.009; 0.10366
 586.37;33767.679;  277.118;42415.309; 0.09975
 586.95;34060.849;  275.522;42455.787; 0.09638
 587.53;34261.899;  269.979;42469.819; 0.09394
 588.11;34268.998;  278.442;42585.262; 0.09505
 588.69;34193.588;  282.733;42557.865; 0.09575
 589.27;34289.531;  283.424;42506.477; 0.09399
 589.85;34559.662;  276.026;42443.602; 0.08989
 590.43;34802.669;  271.715;42599.939; 0.08842
 591.01;34844.577;  278.076;42722.853; 0.08917
 591.59;34855.333;  288.299;42936.945; 0.09124
 592.16;34996.378;  287.924;42891.657; 0.08901
 592.74;35155.443;  291.617;42886.045; 0.08698
 593.32;35220.030;  293.193;42739.948; 0.08469
 593.90;35218.054;  297.895;42708.966; 0.08440
 594.48;35289.120;  288.777;42603.037; 0.08241
 595.06;35354.880;  285.245;42684.475; 0.08243
 595.64;35536.641;  272.769;42709.242; 0.08041
 596.22;35556.207;  276.890;42757.472; 0.08067
 596.80;35568.361;  268.138;42505.619; 0.07792
 597.38;35556.640;  264.245;42457.558; 0.07756
 597.96;35590.989;  262.869;42299.911; 0.07551
 598.54;35643.814;  268.057;42320.734; 0.07509
 599.12;35641.494;  272.769;42174.074; 0.07361
 599.70;35686.374;  272.156;42133.628; 0.07264
 600.28;35657.287;  269.178;41999.881; 0.07160
 600.86;35625.651;  273.568;41898.236; 0.07094
 601.44;35559.735;  279.130;41816.989; 0.07091
 602.02;35471.063;  273.135;41601.984; 0.06974
 602.59;35589.585;  269.019;41487.164; 0.06706
 603.17;35551.734;  254.435;41427.991; 0.06688
 603.75;35517.764;  264.600;41407.036; 0.06709
 604.33;35382.763;  268.544;41269.041; 0.06731
 604.91;35366.700;  272.574;41056.648; 0.06526
 605.49;35457.459;  271.546;40985.067; 0.06337
 606.07;35325.955;  254.900;40828.877; 0.06330
 606.65;35271.114;  260.422;40696.701; 0.06257
 607.23;35138.876;  264.441;40448.820; 0.06155
 607.80;35013.761;  277.156;40221.379; 0.06067
 608.38;34869.202;  277.256;40025.464; 0.06034
 608.96;34661.080;  285.786;39921.000; 0.06183
 609.54;34480.120;  288.246;39743.725; 0.06218
 610.12;34246.103;  283.928;39528.375; 0.06278
 610.70;34019.020;  273.259;39095.265; 0.06086
 611.28;33901.152;  259.195;38813.390; 0.05919
 611.85;33724.988;  265.841;38433.913; 0.05719
 612.43;33569.358;  260.695;38304.961; 0.05773
 613.01;33419.563;  263.202;38019.161; 0.05642
 613.59;33261.186;  249.299;37795.112; 0.05589
 614.17;33064.149;  240.914;37668.085; 0.05701
 614.75;32823.601;  222.778;37521.205; 0.05846
 615.32;32595.513;  209.277;37291.775; 0.05881
 615.90;32474.968;  219.080;36866.572; 0.05544
 616.48;32307.379;  232.952;36658.988; 0.05525
 617.06;32163.217;  255.157;36308.488; 0.05304
 617.64;31898.538;  246.140;36072.812; 0.05380
 618.22;31676.909;  241.049;35666.522; 0.05189
 618.79;31491.675;  228.178;35515.632; 0.05258
 619.37;31386.058;  227.104;35180.352; 0.04990
 619.95;31126.330;  231.387;34894.600; 0.04998
 620.53;30784.896;  218.869;34491.494; 0.04971
 621.11;30425.687;  206.529;34156.975; 0.05056
 621.68;30330.743;  201.116;33920.700; 0.04889
 622.26;30339.832;  202.843;33803.106; 0.04724
 622.84;30163.770;  212.594;33643.042; 0.04773
 623.42;29899.131;  214.208;33340.072; 0.04763
 623.99;29716.216;  232.130;33128.823; 0.04756
 624.57;29683.599;  239.695;32874.211; 0.04468
 625.15;29515.998;  249.244;32723.283; 0.04516
 625.73;29156.162;  235.066;32483.448; 0.04729
 626.30;28855.175;  228.444;32290.122; 0.04921
 626.88;28736.990;  228.031;32032.596; 0.04751
 627.46;28527.501;  230.061;31766.787; 0.04707
 628.04;28358.257;  242.419;31549.234; 0.04669
 628.61;28072.794;  241.899;31249.103; 0.04694
 629.19;27941.785;  244.829;31015.066; 0.04570
 629.77;27723.814;  231.831;30736.758; 0.04516
 630.35;27548.238;  234.217;30562.869; 0.04547
 630.92;27509.947;  232.092;30375.921; 0.04339
 631.50;27366.492;  220.757;30199.145; 0.04311
 632.08;27154.355;  206.521;29949.680; 0.04286
 632.66;26950.476;  196.801;29744.460; 0.04314
 633.23;26778.440;  216.776;29426.430; 0.04127
 633.81;26629.035;  225.566;29138.020; 0.03942
 634.39;26445.118;  220.298;28844.754; 0.03802
 634.96;26285.492;  221.956;28624.791; 0.03733
 635.54;26134.910;  216.680;28606.896; 0.03956
 636.12;25775.299;  214.735;28334.976; 0.04145
 636.69;25527.923;  204.526;28222.591; 0.04392
 637.27;25375.848;  199.403;27913.834; 0.04171
 637.85;25262.414;  217.219;27696.062; 0.04027
 638.42;25141.007;  206.286;27392.989; 0.03755
 639.00;25013.795;  223.367;27259.457; 0.03766
 639.58;24842.605;  209.789;26981.612; 0.03616
 640.15;24604.470;  222.891;26790.445; 0.03729
 640.73;24342.252;  204.119;26492.226; 0.03706
 641.31;24327.034;  216.013;26471.006; 0.03700
 641.88;24190.482;  210.908;26285.787; 0.03638
 642.46;23966.264;  226.803;26132.901; 0.03793
 643.04;23669.379;  214.697;25934.349; 0.04004
 643.61;23618.161;  223.925;25817.463; 0.03902
 644.19;23537.943;  209.153;25659.577; 0.03780
 644.77;23400.391;  224.048;25468.358; 0.03712
 645.34;23106.506;  211.943;25293.805; 0.03963
 645.92;23050.621;  214.504;25070.586; 0.03681
 646.49;23003.737;  218.399;24938.033; 0.03539
 647.07;22954.185;  220.293;24745.814; 0.03294
 647.65;22701.633;  224.188;24564.928; 0.03459
 648.22;22568.749;  218.082;24391.042; 0.03404
 648.80;22442.197;  227.310;24368.156; 0.03611
 649.37;22453.979;  227.872;24339.937; 0.03537
 649.95;22350.761;  227.433;24242.051; 0.03563
 650.53;22315.209;  209.328;24121.165; 0.03411
 651.10;22191.658;  214.222;24054.279; 0.03533
 651.68;22032.439;  211.450;24020.060; 0.03786
 652.25;21939.221;  221.012;23899.174; 0.03752
 652.83;21861.003;  211.573;23700.955; 0.03543
 653.41;21855.785;  208.468;23524.069; 0.03224
 653.98;21807.900;  212.362;23340.850; 0.02978
 654.56;21700.349;  211.590;23307.630; 0.03133
 655.13;21637.797;  208.818;23285.744; 0.03218
 655.71;21522.245;  207.379;23284.525; 0.03450
 656.28;21409.027;  194.941;23185.639; 0.03493
 656.86;21204.476;  188.169;22962.753; 0.03489
 657.43;21163.258;  190.397;22872.868; 0.03403
 658.01;21204.706;  212.958;22793.315; 0.03168
 658.58;21291.155;  207.519;22876.096; 0.03148
 659.16;21241.270;  211.747;22798.876; 0.03103
 659.74;21193.718;  196.309;22777.324; 0.03158
 660.31;21159.833;  204.203;22714.438; 0.03108
 660.89;21111.948;  198.098;22687.885; 0.03155
 661.46;21059.064;  206.659;22545.999; 0.02991
 662.04;21014.179;  208.554;22516.780; 0.03028
 662.61;21051.961;  207.448;22500.894; 0.02919
 663.19;21082.409;  206.676;22626.342; 0.03099
 663.76;21054.524;  209.571;22600.456; 0.03107
 664.34;20978.639;  211.132;22526.237; 0.03121
 664.91;20988.421;  214.027;22413.684; 0.02882
 665.49;21033.203;  216.922;22441.798; 0.02844
 666.06;21043.318;  213.150;22513.246; 0.02961
 666.64;21067.433;  212.044;22555.693; 0.02994
 667.21;21106.882;  216.606;22500.140; 0.02804
 667.79;21176.330;  204.167;22400.588; 0.02464
 668.36;21106.112;  201.395;22402.702; 0.02613
 668.93;21063.894;  202.290;22421.149; 0.02737
 669.51;20979.342;  198.184;22426.263; 0.02923
 670.08;21001.791;  192.412;22387.044; 0.02799
 670.66;20952.572;  189.307;22273.825; 0.02679
 671.23;21045.688;  213.201;22361.606; 0.02660
 671.81;21041.136;  219.763;22403.720; 0.02753
 672.38;21144.251;  224.324;22501.167; 0.02729
 672.96;21180.700;  213.552;22510.281; 0.02670
 673.53;21202.815;  213.113;22482.395; 0.02570
 674.10;21223.597;  213.008;22524.843; 0.02610
 674.68;21103.378;  228.236;22505.290; 0.02823
 675.25;21041.827;  221.131;22417.404; 0.02778
 675.83;20972.609;  215.692;22370.185; 0.02830
 676.40;20977.724;  203.253;22300.299; 0.02680
 676.98;20984.839;  209.148;22323.413; 0.02712
 677.55;20967.621;  210.043;22281.527; 0.02665
 678.12;20899.069;  223.937;22260.975; 0.02770
 678.70;20830.518;  221.832;22236.089; 0.02865
 679.27;20769.633;  229.060;22163.870; 0.02852
 679.85;20887.081;  216.621;22124.984; 0.02526
 680.42;20981.197;  216.516;22133.431; 0.02345
 680.99;20956.312;  192.744;22099.212; 0.02327
 681.57;20795.427;  198.305;22028.659; 0.02525
 682.14;20736.209;  205.866;21848.773; 0.02292
 682.71;20705.657;  210.761;21795.554; 0.02250
 683.29;20706.106;  200.656;21706.668; 0.02069
 683.86;20470.554;  185.884;21546.116; 0.02244
 684.43;20267.003;  198.112;21362.230; 0.02308
 685.01;20211.451;  197.006;21197.011; 0.02088
 685.58;20256.900;  206.234;21272.458; 0.02146
 686.16;20311.681;  206.462;21269.239; 0.02021
 686.73;20245.463;  215.023;21397.686; 0.02429
 687.30;20194.912;  207.585;21388.467; 0.02519
 687.88;20178.027;  217.479;21321.914; 0.02420
 688.45;20020.142;  210.707;21118.362; 0.02343
 689.02;19959.590;  213.602;21022.142; 0.02276
 689.60;19891.706;  190.497;20889.257; 0.02145
 690.17;20038.487;  199.391;20926.704; 0.01902
 690.74;19978.936;  189.619;20805.485; 0.01777
 691.31;19976.051;  204.181;20824.932; 0.01826
 691.89;19771.833;  191.742;20754.713; 0.02127
 692.46;19753.948;  212.637;20700.494; 0.02054
 693.03;19654.063;  229.198;20611.941; 0.02090
 693.61;19601.511;  234.759;20426.722; 0.01812
 694.18;19493.960;  237.320;20424.503; 0.02050
 694.75;19442.075;  206.882;20414.950; 0.02143
 695.32;19407.190;  208.110;20458.064; 0.02314
 695.90;19463.972;  203.004;20312.512; 0.01872
 696.47;19450.421;  203.899;20210.626; 0.01682
 697.04;19406.202;  214.460;20060.073; 0.01455
 697.62;19345.651;  213.355;20039.187; 0.01546
 698.19;19194.766;  229.250;19951.301; 0.01699
 698.76;19100.548;  211.144;19960.082; 0.01933
 699.33;18966.663;  210.706;19883.196; 0.02072
 699.91;18925.445;  196.600;19795.977; 0.01973
 700.48;18845.893;  206.162;19674.091; 0.01888
 701.05;18691.008;  208.056;19645.538; 0.02187
 701.62;18627.790;  232.951;19536.652; 0.02094
 702.20;18619.572;  235.179;19463.767; 0.01950
 702.77;18577.687;  232.073;19314.881; 0.01711
 703.34;18456.802;  217.301;19303.995; 0.01972
 703.91;18337.251;  214.196;19161.775; 0.01932
 704.48;18259.699;  220.091;19054.223; 0.01872
 705.06;18218.148;  212.652;18964.004; 0.01763
 705.63;18192.596;  221.213;18940.118; 0.01770
 706.20;18161.711;  214.441;18934.565; 0.01831
 706.77;18081.493;  221.336;18864.679; 0.01864
 707.34;18114.942;  215.564;18821.793; 0.01682
 707.92;18020.057;  205.792;18710.907; 0.01652
 708.49;17987.172;  193.353;18575.022; 0.01412
 709.06;17876.287;  193.248;18466.136; 0.01425
 709.63;17947.735;  194.476;18431.916; 0.01169
 710.20;17891.851;  191.037;18446.697; 0.01340
 710.77;17699.299;  187.932;18338.145; 0.01556
 711.35;17574.081;  185.826;18305.592; 0.01790
 711.92;17671.529;  205.721;18271.706; 0.01467
 712.49;17795.311;  207.616;18372.487; 0.01402
 713.06;17828.093;  215.844;18405.934; 0.01402
 713.63;17689.208;  209.405;18498.382; 0.01965
 714.20;17687.323;  212.300;18556.829; 0.02109
 714.78;17775.438;  209.528;18487.277; 0.01725
 715.35;17838.554;  205.756;18407.724; 0.01380
 715.92;17830.335;  207.317;18351.838; 0.01267
 716.49;17765.117;  222.545;18343.285; 0.01408
 717.06;17765.566;  226.106;18273.400; 0.01240
 717.63;17705.681;  217.334;18198.847; 0.01208
 718.20;17685.796;  210.895;18175.294; 0.01200
 718.77;17651.911;  224.790;18170.075; 0.01272
 719.35;17612.693;  226.351;18153.189; 0.01330
 719.92;17533.808;  211.913;18038.303; 0.01247
 720.49;17447.923;  197.474;17879.084; 0.01072
 721.06;17348.038;  177.369;17774.532; 0.01066
 721.63;17262.487;  190.930;17799.979; 0.01346
 722.20;17203.602;  195.825;17861.426; 0.01648
 722.77;17288.050;  203.386;17825.540; 0.01345
 723.34;17307.832;  196.947;17821.321; 0.01284
 723.91;17323.281;  205.509;17813.102; 0.01225
 724.48;17200.729;  222.070;17777.883; 0.01452
 725.05;17100.511;  212.964;17617.997; 0.01311
 725.62;17011.959;  195.192;17490.778; 0.01219
 726.20;17106.408;  186.754;17461.892; 0.00903
 726.77;17137.523;  192.982;17446.339; 0.00784
 727.34;17107.638;  199.210;17412.787; 0.00777
 727.91;17007.753;  209.104;17361.567; 0.00905
 728.48;16924.202;  214.999;17354.015; 0.01103
 729.05;16901.650;  215.560;17353.795; 0.01161
 729.62;16871.765;  192.788;17320.910; 0.01154
 730.19;16961.547;  185.683;17297.024; 0.00860
 730.76;16974.996;  188.578;17324.138; 0.00894
 731.33;17002.111;  211.472;17306.252; 0.00780
 731.90;16906.893;  215.034;17274.033; 0.00945
 732.47;16851.341;  206.261;17242.147; 0.01008
 733.04;16746.123;  191.156;17245.594; 0.01291
 733.61;16685.571;  168.051;17256.042; 0.01475
 734.18;16690.353;  173.945;17191.156; 0.01297
 734.75;16650.135;  184.507;17077.270; 0.01112
 735.32;16571.250;  211.401;16955.384; 0.01008
 735.89;16498.699;  203.963;16851.831; 0.00931
 736.46;16488.480;  212.191;16734.945; 0.00653
 737.03;16382.262;  203.085;16674.393; 0.00777
 737.60;16264.377;  203.647;16580.840; 0.00847
 738.17;16093.826;  173.208;16558.621; 0.01250
 738.74;16036.274;  184.103;16523.735; 0.01315
 739.31;15951.056;  185.331;16430.849; 0.01302
 739.88;15876.505;  195.225;16300.630; 0.01159
 740.45;15822.286;  176.120;16234.411; 0.01129
 741.02;15827.068;  174.348;16293.858; 0.01276
 741.59;15918.517;  171.909;16337.305; 0.01140
 742.15;16021.965;  177.804;16325.753; 0.00825
 742.72;16056.080;  185.365;16376.867; 0.00869
 743.29;16024.195;  187.593;16351.648; 0.00889
 743.86;15960.644;  195.154;16298.095; 0.00920
 744.43;15976.426;  197.049;16220.543; 0.00667
 745.00;16014.208;  201.277;16240.323; 0.00617
 745.57;16037.323;  209.172;16261.771; 0.00612
 746.14;15952.105;  201.733;16198.552; 0.00674
 746.71;15951.220;  208.294;16179.666; 0.00626
 747.28;15916.335;  196.522;16170.446; 0.00696
 747.85;15906.117;  172.417;16124.227; 0.00598
 748.42;15847.565;  173.645;16103.675; 0.00704
 748.98;15885.014;  177.206;16075.455; 0.00523
 749.55;15901.129;  197.767;16011.569; 0.00304
 750.12;15866.577;  197.662;16015.683; 0.00411
 750.69;15785.692;  204.890;15955.131; 0.00470
 751.26;15691.141;  216.118;15910.245; 0.00611
 751.83;15622.589;  206.013;15821.026; 0.00555
 752.40;15582.704;  204.907;15769.807; 0.00525
 752.97;15525.486;  192.802;15780.587; 0.00717
 753.53;15454.268;  195.697;15773.035; 0.00898
 754.10;15375.050;  187.925;15706.815; 0.00939
 754.67;15350.832;  185.486;15666.263; 0.00894
 755.24;15332.280;  192.714;15616.044; 0.00806
 755.81;15338.395;  200.608;15583.491; 0.00698
 756.38;15244.844;  223.503;15510.272; 0.00761
 756.94;15224.626;  215.064;15482.386; 0.00739
 757.51;15107.741;  204.292;15502.833; 0.01136
 758.08;15152.522;  196.520;15545.281; 0.01126
 758.65;15024.304;  213.748;15443.728; 0.01213
 759.22;14966.419;  220.643;15351.176; 0.01119
 759.79;14851.868;  205.538;15180.623; 0.00964
 760.35;14750.983;  191.432;15130.404; 0.01117
 760.92;14692.765;  201.994;14987.518; 0.00875
 761.49;14586.547;  208.555;14849.965; 0.00788
 762.06;14572.995;  211.783;14641.079; 0.00205
 762.63;14435.777;  201.011;14500.527; 0.00197
 763.19;14364.892;  203.239;14469.641; 0.00320
 763.76;14181.007;  215.133;14423.422; 0.00747
 764.33;14103.122;  219.695;14294.202; 0.00594
 764.90;13958.238;  218.589;14107.650; 0.00470
 765.46;13874.353;  197.817;13914.097; 0.00126
 766.03;13633.134;  196.045;13749.878; 0.00376
 766.60;13475.250;  197.940;13624.992; 0.00487
 767.17;13242.365;  205.501;13465.773; 0.00738
 767.73;13149.813;  207.063;13413.220; 0.00875
 768.30;12971.262;  206.624;13205.001; 0.00788
 768.87;12853.377;  215.185;13045.782; 0.00656
 769.44;12747.825;  213.413;12836.229; 0.00305
 770.00;12562.274;  215.975;12686.677; 0.00435
 770.57;12444.722;  216.536;12525.791; 0.00287
 771.14;12218.837;  213.430;12350.238; 0.00473
 771.71;11980.619;  198.325;12122.686; 0.00521
 772.27;11712.068;  206.220;11935.800; 0.00836
 772.84;11510.850;  209.448;11715.914; 0.00781
 773.41;11375.298;  213.676;11595.695; 0.00849
 773.97;11245.746;  205.904;11440.809; 0.00761
 774.54;11117.862;  213.798;11314.923; 0.00778
 775.11;11016.977;  232.360;11227.370; 0.00839
 775.67;10853.092;  228.588;11074.818; 0.00897
 776.24;10690.207;  222.482;10902.265; 0.00871
 776.81;10510.989;  220.377;10665.712; 0.00648
 777.38;10421.771;  208.272;10484.160; 0.00264
 777.94;10357.886;  214.166;10350.941;-0.00030
 778.51;10237.334;  199.728;10214.721;-0.00098
 779.08;10093.116;  210.622;10137.835; 0.00196
 779.64; 9952.231;  201.517;10058.283; 0.00470
 780.21; 9886.346;  202.745; 9970.064; 0.00374
 780.78; 9809.795;  211.639; 9870.178; 0.00272
 781.34; 9702.243;  212.534; 9787.625; 0.00389
 781.91; 9645.358;  225.762; 9703.406; 0.00267
 782.47; 9545.140;  227.990; 9633.520; 0.00410
 783.04; 9443.589;  238.551; 9482.634; 0.00184
 783.61; 9362.037;  245.779; 9385.415; 0.00111
 784.17; 9280.819;  246.674; 9320.196; 0.00189
 784.74; 9217.267;  236.569; 9240.310; 0.00111
 785.31; 9166.049;  244.797; 9256.090; 0.00436
 785.87; 9137.498;  248.691; 9137.538; 0.00000
 786.44; 9132.613;  252.252; 9126.319;-0.00031
 787.00; 9024.728;  239.480; 9065.766; 0.00202
 787.57; 8952.177;  222.375; 9005.880; 0.00266
 788.14; 8883.292;  242.936; 8941.661; 0.00292
 788.70; 8887.740;  252.831; 8828.442;-0.00299
 789.27; 8874.189;  261.392; 8880.222; 0.00030
 789.83; 8800.970;  247.620; 8836.003; 0.00178
 790.40; 8770.086;  230.182; 8838.117; 0.00345
 790.96; 8683.534;  235.076; 8799.898; 0.00594
 791.53; 8677.316;  229.304; 8766.679; 0.00457
 792.10; 8637.764;  224.866; 8777.126; 0.00714
 792.66; 8653.879;  219.094; 8720.574; 0.00342
 793.23; 8615.661;  214.988; 8733.688; 0.00606
 793.79; 8532.443;  216.216; 8675.468; 0.00741
 794.36; 8486.892;  210.777; 8660.249; 0.00900
 794.92; 8451.340;  219.339; 8606.363; 0.00810
 795.49; 8451.455;  232.233; 8532.811; 0.00428
 796.05; 8408.904;  243.461; 8505.258; 0.00509
 796.62; 8405.352;  248.023; 8527.372; 0.00645
 797.19; 8397.467;  237.917; 8507.820; 0.00583
 797.75; 8396.582;  226.145; 8453.600; 0.00302
 798.32; 8338.698;  218.373; 8393.714; 0.00293
 798.88; 8331.479;  222.601; 8383.829; 0.00279
 799.45; 8397.594;  224.829; 8436.276; 0.00205
 800.01; 8535.043;  220.391; 8517.723;-0.00091
 800.58; 8762.491;  215.952; 8677.504;-0.00434
 801.14; 8985.607;  222.513; 8916.952;-0.00342
 801.71; 9186.722;  218.074; 9117.399;-0.00337
 802.27; 9333.837;  206.969; 9310.180;-0.00113
 802.84; 9540.619;  188.864; 9480.294;-0.00281
 803.40; 9823.067;  179.758; 9723.075;-0.00453
 803.96;10132.849;  198.986;10006.189;-0.00557
 804.53;10442.297;  210.548;10273.303;-0.00723
 805.09;10742.413;  208.442;10576.417;-0.00690
 805.66;11073.861;  200.670;10926.198;-0.00594
 806.22;11342.310;  172.898;11264.978;-0.00302
 806.79;11744.758;  185.793;11622.426;-0.00462
 807.35;12062.873;  182.354;11886.873;-0.00648
 807.92;12470.322;  214.582;12161.654;-0.01108
 808.48;12710.770;  221.810;12436.768;-0.00963
 809.05;12943.552;  217.705;12708.882;-0.00808
 809.61;13213.000;  213.933;13054.330;-0.00533
 810.17;13540.782;  218.827;13355.110;-0.00610
 810.74;13912.564;  231.055;13671.891;-0.00771
 811.30;14257.346;  226.617;13899.672;-0.01121
 811.87;14533.128;  214.511;14212.453;-0.00984
 812.43;14828.576;  214.406;14571.233;-0.00772
 812.99;15150.025;  216.967;14881.014;-0.00789
 813.56;15557.806;  221.862;15191.462;-0.01050
 814.12;15954.922;  221.090;15523.909;-0.01206
 814.69;16238.037;  216.318;15866.356;-0.01019
 815.25;16456.485;  210.213;16143.804;-0.00844
 815.81;16714.600;  200.774;16302.251;-0.01098
 816.38;17055.382;  196.335;16642.699;-0.01076
 816.94;17363.497;  193.897;16882.479;-0.01234
 817.51;17661.946;  192.791;17283.594;-0.00951
 818.07;17878.394;  201.019;17504.374;-0.00929
 818.63;18146.176;  202.247;17804.155;-0.00836
 819.20;18416.624;  201.808;18033.936;-0.00922
 819.76;18720.740;  209.370;18216.050;-0.01200
 820.32;18959.188;  216.598;18394.831;-0.01328
 820.89;19108.637;  218.159;18583.278;-0.01225
 821.45;19168.752;  193.387;18775.726;-0.00909
 822.01;19309.533;  176.615;18965.173;-0.00789
 822.58;19425.649;  180.843;19065.620;-0.00820
 823.14;19561.430;  194.404;19233.068;-0.00743
 823.70;19607.546;  202.299;19352.182;-0.00575
 824.27;19628.327;  193.194;19462.963;-0.00371
 824.83;19707.443;  215.421;19467.743;-0.00537
 825.39;19668.224;  215.649;19374.524;-0.00661
 825.95;19635.673;  221.211;19316.972;-0.00719
 826.52;19429.455;  191.105;19274.752;-0.00351
 827.08;19308.570;  189.000;19152.200;-0.00357
 827.64;19105.352;  175.895;18949.314;-0.00359
 828.21;18879.800;  175.123;18660.095;-0.00513
 828.77;18557.582;  181.351;18397.542;-0.00380
 829.33;18184.030;  183.579;18029.323;-0.00375
 829.89;17871.812;  181.807;17638.104;-0.00578
 830.46;17524.261;  185.701;17297.218;-0.00572
 831.02;17204.042;  190.596;16895.332;-0.00795
 831.58;16830.158;  201.157;16540.779;-0.00762
 832.15;16343.939;  185.052;16128.893;-0.00582
 832.71;15879.388;  188.280;15811.341;-0.00189
 833.27;15274.503;  178.841;15353.455; 0.00227
 833.83;14843.951;  169.736;14940.569; 0.00285
 834.39;14300.400;  164.297;14394.016; 0.00287
 834.96;13969.848;  162.192;13925.464;-0.00140
 835.52;13566.964;  187.086;13474.578;-0.00301
 836.08;13165.745;  188.981;13047.025;-0.00399
 836.64;12691.861;  194.876;12619.473;-0.00252
 837.21;12293.309;  198.770;12148.920;-0.00522
 837.77;11884.091;  198.332;11759.367;-0.00466
 838.33;11470.873;  206.893;11447.148;-0.00092
 838.89;11038.321;  203.121;11001.596;-0.00147
 839.45;10607.436;  205.349;10589.710;-0.00074
 840.02;10230.218;  209.910;10134.490;-0.00417
 840.58; 9806.333;  201.805; 9836.938; 0.00138
 841.14; 9416.448;  224.699; 9457.052; 0.00191
 841.70; 8958.897;  220.594; 9049.833; 0.00450
 842.26; 8593.012;  218.155; 8613.280; 0.00105
 842.82; 8203.127;  209.050; 8233.061; 0.00162
 843.39; 7867.909;  200.278; 7802.175;-0.00374
 843.95; 7511.691;  213.839; 7446.956;-0.00387
 844.51; 7223.139;  213.734; 7076.737;-0.00917
 845.07; 6908.254;  223.295; 6751.184;-0.01033
 845.63; 6616.703;  228.523; 6447.965;-0.01163
 846.19; 6367.818;  213.418; 6205.745;-0.01159
 846.75; 6178.933;  212.646; 6042.860;-0.01002
 847.32; 5919.382;  191.874; 5828.307;-0.00696
 847.88; 5697.830;  198.435; 5647.088;-0.00403
 848.44; 5416.945;  182.996; 5418.202; 0.00010
 849.00; 5220.394;  188.224; 5206.649;-0.00119
 849.56; 5120.842;  183.119; 5035.763;-0.00755
 850.12; 5028.957;  176.680; 4913.211;-0.01049
 850.68; 4981.739;  181.908; 4877.325;-0.00955
 851.24; 4883.854;  184.136; 4806.439;-0.00721
 851.80; 4867.636;  199.364; 4790.220;-0.00726
 852.37; 4826.418;  196.592; 4731.334;-0.00901
 852.93; 4807.200;  204.820; 4729.448;-0.00740
 853.49; 4780.315;  212.715; 4650.895;-0.01248
 854.05; 4806.763;  223.943; 4597.676;-0.02028
 854.61; 4732.878;  224.171; 4520.790;-0.02093
 855.17; 4699.660;  234.066; 4501.904;-0.01967
 855.73; 4654.109;  222.627; 4484.352;-0.01696
 856.29; 4677.890;  213.855; 4475.132;-0.02019
 856.85; 4687.339;  192.749; 4517.913;-0.01669
 857.41; 4765.787;  203.644; 4600.027;-0.01607
 857.97; 4853.903;  205.205; 4760.141;-0.00885
 858.53; 4998.351;  207.433; 4902.255;-0.00880
 859.09; 5115.800;  192.328; 5028.370;-0.00778
 859.65; 5331.248;  184.889; 5166.484;-0.01413
 860.21; 5592.696;  182.451; 5403.598;-0.01545
 860.77; 5896.145;  179.679; 5685.045;-0.01634
 861.33; 6206.593;  189.573; 6014.826;-0.01407
 861.89; 6512.042;  205.135; 6331.273;-0.01263
 862.45; 6859.157;  215.363; 6656.387;-0.01346
 863.01; 7207.272;  205.924; 6960.168;-0.01560
 863.57; 7549.721;  191.152; 7240.949;-0.01862
 864.13; 7922.836;  180.713; 7598.730;-0.01857
 864.69; 8304.951;  188.608; 7928.510;-0.02062
 865.25; 8733.066;  208.502; 8274.958;-0.02399
 865.81; 9011.181;  215.730; 8598.739;-0.02086
 866.37; 9305.630;  213.625; 8883.853;-0.02063
 866.93; 9605.745;  200.853; 9198.967;-0.01920
 867.49; 9974.860;  216.081; 9536.081;-0.01998
 868.05;10295.642;  210.642; 9849.195;-0.01966
 868.61;10573.424;  206.870;10116.309;-0.01959
 869.17;10894.872;  185.765;10306.090;-0.02456
 869.73;11191.654;  202.660;10652.537;-0.02185
 870.29;11512.102;  209.554;10985.985;-0.02070
 870.85;11784.551;  212.115;11316.099;-0.01795
 871.41;12122.333;  192.010;11700.213;-0.01564
 871.97;12464.448;  179.571;12032.994;-0.01553
 872.53;12904.230;  184.799;12414.108;-0.01707
 873.09;13295.678;  192.361;12748.222;-0.01853
 873.65;13734.127;  202.922;13125.336;-0.01999
 874.20;14103.575;  204.150;13530.783;-0.01828
 874.76;14566.575;  206.483;13844.450;-0.02241
 875.32;14943.575;  199.150;14344.450;-0.01802
 875.88;15333.242;  204.817;14722.117;-0.01791
 876.44;15707.908;  218.150;15059.450;-0.01857
 877.00;16116.575;  218.150;15358.117;-0.02123
 877.56;16428.242;  215.483;15696.450;-0.02006
 878.12;16673.242;  204.483;16104.450;-0.01526
 878.68;16872.242;  211.817;16344.450;-0.01398
 879.23;17112.242;  207.150;16637.783;-0.01236
 879.79;17386.575;  220.483;16875.783;-0.01312
 880.35;17631.575;  205.150;17127.117;-0.01276
 880.91;17921.242;  192.150;17367.783;-0.01377
 881.47;18218.242;  175.817;17611.783;-0.01485
 882.03;18535.575;  191.483;17929.783;-0.01458
 882.59;18816.242;  204.150;18199.450;-0.01464
 883.14;18889.908;  217.150;18423.117;-0.01099
 883.70;18946.242;  220.150;18492.117;-0.01066
 884.26;19032.575;  217.483;18606.117;-0.00996
 884.82;19164.575;  200.150;18627.783;-0.01247
 885.38;19198.908;  184.483;18693.783;-0.01169
 885.94;19227.242;  186.817;18692.783;-0.01236
 886.49;19282.908;  200.150;18759.783;-0.01207
 887.05;19323.908;  192.817;18819.450;-0.01161
 887.61;19131.242;  182.817;18766.450;-0.00844
 888.17;19051.575;  175.817;18655.450;-0.00921
 888.73;18897.908;  189.483;18492.450;-0.00952
 889.28;18768.908;  190.150;18251.117;-0.01228
 889.84;18607.575;  191.817;18020.450;-0.01407
 890.40;18414.575;  194.817;17792.450;-0.01509
 890.96;18279.575;  199.483;17628.450;-0.01593
 891.51;17916.575;  189.483;17470.117;-0.01108
 892.07;17725.242;  183.817;17244.117;-0.01208
 892.63;17661.242;  190.483;17036.783;-0.01581
 893.19;17598.908;  200.817;16880.117;-0.01832
 893.74;17464.908;  215.150;16772.783;-0.01778
 894.30;17268.575;  206.150;16671.450;-0.01547
 894.86;17116.908;  185.150;16510.450;-0.01584
 895.42;17012.908;  176.483;16397.450;-0.01617
 895.97;16879.908;  175.150;16362.450;-0.01367
 896.53;16923.575;  203.817;16299.450;-0.01652
 897.09;16924.575;  212.817;16258.117;-0.01767
 897.65;16804.575;  225.483;16079.783;-0.01941
 898.20;16700.575;  228.483;15994.117;-0.01904
 898.76;16559.575;  215.150;15888.117;-0.01822
 899.32;16508.242;  215.483;15824.450;-0.01862
 899.87;16340.575;  206.483;15765.117;-0.01577
 900.43;16236.575;  206.150;15631.783;-0.01670
 900.99;16079.908;  194.483;15508.450;-0.01591
 901.54;15884.242;  181.150;15319.450;-0.01591
 902.10;15661.242;  193.150;15133.117;-0.01509
 902.66;15482.575;  208.483;14918.117;-0.01635
 903.21;15299.908;  221.817;14754.117;-0.01601
 903.77;15208.242;  229.483;14588.450;-0.01835
 904.33;15077.908;  209.483;14443.783;-0.01893
 904.88;15008.908;  198.150;14329.783;-0.02038
 905.44;14790.242;  177.150;14293.450;-0.01502
 906.00;14674.242;  191.150;14324.117;-0.01063
 906.55;14554.575;  207.483;14294.117;-0.00796
 907.11;14540.575;  214.150;14239.117;-0.00924
 907.67;14391.908;  205.817;14016.117;-0.01166
 908.22;14227.908;  196.150;13855.783;-0.01167
 908.78;14165.242;  187.817;13715.783;-0.01419
 909.33;14085.575;  195.483;13616.783;-0.01491
 909.89;14109.242;  192.150;13488.783;-0.01981
 910.45;13902.908;  201.150;13406.783;-0.01602
 911.00;13813.575;  191.483;13362.117;-0.01464
 911.56;13683.575;  203.817;13272.117;-0.01346
 912.12;13605.908;  208.483;13101.117;-0.01668
 912.67;13493.575;  221.483;12951.117;-0.01812
 913.23;13240.242;  194.150;12807.450;-0.01465
 913.78;13015.575;  178.483;12651.783;-0.01249
 914.34;12903.908;  201.483;12642.117;-0.00904
 914.89;12857.908;  216.483;12543.117;-0.01095
 915.45;12813.575;  227.150;12558.117;-0.00891
 916.01;12678.908;  195.483;12386.117;-0.01031
 916.56;12586.575;  201.483;12282.450;-0.01080
 917.12;12472.908;  196.817;12063.117;-0.01474
 917.67;12405.908;  195.483;11981.117;-0.01538
 918.23;12310.242;  182.817;11944.450;-0.01330
 918.78;12202.908;  186.483;11927.117;-0.01008
 919.34;12024.908;  188.817;11843.783;-0.00670
 919.89;11884.242;  199.150;11694.117;-0.00712
 920.45;11735.908;  185.817;11531.783;-0.00774
 921.00;11699.242;  168.817;11330.783;-0.01410
 921.56;11581.575;  176.150;11296.783;-0.01098
 922.11;11515.242;  175.150;11154.450;-0.01404
 922.67;11382.908;  202.483;11048.450;-0.01319
 923.22;11203.908;  191.150;10815.450;-0.01560
 923.78;11012.242;  202.817;10632.117;-0.01555
 924.33;10786.908;  195.817;10497.117;-0.01205
 924.89;10629.908;  196.483;10361.117;-0.01134
 925.44;10499.908;  204.817;10248.117;-0.01075
 926.00;10358.242;  201.150;10018.783;-0.01476
 926.55;10302.242;  205.150; 9867.117;-0.01913
 927.11;10205.575;  188.150; 9720.450;-0.02156
 927.66;10149.242;  177.817; 9717.117;-0.01924
 928.22; 9988.908;  174.483; 9670.783;-0.01431
 928.77; 9901.242;  190.150; 9636.117;-0.01202
 929.33; 9801.908;  204.150; 9587.783;-0.00980
 929.88; 9846.242;  205.150; 9516.450;-0.01512
 930.43; 9839.575;  182.483; 9493.450;-0.01585
 930.99; 9857.908;  174.817; 9470.117;-0.01775
 931.54; 9842.242;  167.150; 9456.783;-0.01766
 932.10; 9836.575;  190.150; 9473.117;-0.01668
 932.65; 9872.242;  197.150; 9480.117;-0.01797
 933.21; 9858.908;  198.483; 9496.450;-0.01661
 933.76; 9893.908;  187.483; 9472.117;-0.01929
 934.31; 9888.575;  183.150; 9454.117;-0.01989
 934.87; 9854.242;  190.150; 9433.783;-0.01932
 935.42; 9848.242;  199.483; 9431.450;-0.01918
 935.98; 9796.908;  195.483; 9388.450;-0.01888
 936.53; 9777.242;  193.817; 9335.450;-0.02050
 937.08; 9713.242;  191.150; 9347.783;-0.01700
 937.64; 9616.908;  197.817; 9356.783;-0.01216
 938.19; 9607.908;  196.483; 9425.117;-0.00852
 938.74; 9603.575;  199.817; 9340.117;-0.01234
 939.30; 9674.242;  187.150; 9339.783;-0.01559
 939.85; 9581.575;  186.483; 9209.783;-0.01754
 940.40; 9591.242;  173.817; 9251.783;-0.01594
 940.96; 9534.908;  187.150; 9238.450;-0.01400
 941.51; 9589.242;  189.483; 9244.783;-0.01621
 942.06; 9511.908;  197.150; 9160.450;-0.01670
 942.62; 9454.242;  184.817; 9036.783;-0.02001
 943.17; 9328.575;  195.150; 8966.450;-0.01757
 943.72; 9175.908;  180.483; 8903.117;-0.01337
 944.28; 9122.908;  199.483; 8795.117;-0.01625
 944.83; 9118.242;  184.150; 8766.783;-0.01743
 945.38; 9125.242;  194.483; 8735.117;-0.01940
 945.94; 9075.908;  186.483; 8804.450;-0.01347
 946.49; 9010.908;  205.150; 8772.783;-0.01191
 947.04; 9009.908;  208.817; 8738.117;-0.01362
 947.60; 8966.242;  215.150; 8638.117;-0.01660
 948.15; 8856.242;  203.483; 8519.117;-0.01726
 948.70; 8718.242;  212.817; 8413.783;-0.01583
 949.25; 8568.242;  206.150; 8325.117;-0.01281
 949.81; 8494.575;  208.817; 8271.117;-0.01187
 950.36; 8349.908;  198.483; 8157.117;-0.01040
 950.91; 8303.575;  207.150; 8037.783;-0.01450
 951.46; 8164.575;  203.817; 7873.117;-0.01620
 952.02; 8002.242;  207.150; 7734.117;-0.01520
 952.57; 7840.908;  207.150; 7606.450;-0.01355
 953.12; 7701.908;  218.483; 7526.117;-0.01032
 953.67; 7632.242;  218.150; 7443.783;-0.01118
 954.23; 7507.908;  215.817; 7359.450;-0.00893
 954.78; 7372.575;  208.150; 7234.450;-0.00845
 955.33; 7257.242;  218.150; 7119.783;-0.00856
 955.88; 7183.242;  217.150; 6980.117;-0.01285
 956.44; 7115.242;  230.483; 6838.450;-0.01782
 956.99; 7038.908;  228.817; 6737.117;-0.01969
 957.54; 6940.575;  223.817; 6672.783;-0.01767
 958.09; 6930.908;  222.150; 6636.783;-0.01947
 958.64; 6893.908;  206.817; 6607.450;-0.01901
 959.20; 6881.242;  203.483; 6532.450;-0.02330
 959.75; 6774.242;  199.817; 6496.450;-0.01875
 960.30; 6801.908;  218.150; 6441.783;-0.02443
 960.85; 6747.575;  225.150; 6424.450;-0.02207
 961.40; 6744.575;  228.817; 6381.117;-0.02493
 961.95; 6659.575;  231.817; 6360.783;-0.02067
 962.51; 6679.575;  239.483; 6360.117;-0.02210
 963.06; 6700.575;  242.817; 6380.117;-0.02210
 963.61; 6670.575;  234.150; 6314.783;-0.02470
 964.16; 6608.242;  235.150; 6258.450;-0.02452
 964.71; 6578.575;  222.483; 6212.117;-0.02579
 965.26; 6593.908;  213.150; 6253.117;-0.02384
 965.81; 6611.242;  210.817; 6289.117;-0.02243
 966.36; 6619.575;  208.483; 6323.783;-0.02051
 966.92; 6605.908;  216.150; 6305.117;-0.02094
 967.47; 6585.575;  218.483; 6338.117;-0.01722
 968.02; 6652.575;  232.483; 6354.117;-0.02067
 968.57; 6691.908;  234.817; 6375.450;-0.02182
 969.12; 6770.242;  219.817; 6368.783;-0.02747
 969.67; 6776.575;  204.483; 6420.783;-0.02417
 970.22; 6895.575;  194.150; 6469.783;-0.02851
 970.77; 6954.242;  199.817; 6539.117;-0.02755
 971.32; 6975.908;  197.483; 6593.117;-0.02525
 971.87; 7019.242;  198.817; 6693.117;-0.02128
 972.42; 7097.908;  215.150; 6793.117;-0.01967
 972.98; 7248.908;  220.817; 6908.783;-0.02154
 973.53; 7278.908;  231.483; 6996.117;-0.01779
 974.08; 7325.575;  215.483; 7040.450;-0.01777
 974.63; 7421.908;  223.483; 7078.450;-0.02123
 975.18; 7591.908;  218.483; 7103.117;-0.02979
 975.73; 7652.242;  224.817; 7157.450;-0.02994
 976.28; 7665.908;  221.483; 7219.117;-0.02688
 976.83; 7633.242;  221.483; 7315.450;-0.01903
 977.38; 7694.575;  219.483; 7373.783;-0.01905
 977.93; 7730.242;  222.150; 7387.450;-0.02030
 978.48; 7784.908;  228.483; 7365.783;-0.02478
 979.03; 7772.575;  234.817; 7358.117;-0.02456
 979.58; 7714.242;  221.483; 7329.117;-0.02292
 980.13; 7690.908;  207.150; 7367.783;-0.01917
 980.68; 7669.908;  186.483; 7310.450;-0.02138
 981.23; 7650.575;  185.817; 7278.117;-0.02223
 981.78; 7593.242;  207.150; 7207.450;-0.02330
 982.33; 7542.242;  219.150; 7257.117;-0.01725
 982.88; 7467.908;  232.483; 7211.783;-0.01565
 983.43; 7425.242;  218.150; 7145.783;-0.01718
 983.98; 7377.575;  215.150; 6984.117;-0.02454
 984.53; 7301.575;  203.817; 6873.450;-0.02702
 985.08; 7235.575;  209.817; 6835.783;-0.02544
 985.63; 7139.575;  211.150; 6787.117;-0.02267
 986.18; 7087.575;  218.817; 6756.783;-0.02144
 986.73; 6982.908;  218.483; 6610.450;-0.02460
 987.27; 6917.575;  227.483; 6521.117;-0.02653
 987.82; 6817.242;  238.483; 6431.783;-0.02622
 988.37; 6716.575;  243.150; 6400.783;-0.02172
 988.92; 6656.575;  234.150; 6351.117;-0.02116
 989.47; 6598.242;  214.483; 6285.117;-0.02184
 990.02; 6528.908;  208.483; 6199.117;-0.02327
 990.57; 6432.242;  208.150; 6083.117;-0.02507
 991.12; 6381.242;  215.150; 6044.450;-0.02439
 991.67; 6281.242;  213.817; 5969.117;-0.02294
 992.22; 6168.575;  200.483; 5915.450;-0.01882
 992.77; 6028.575;  200.150; 5802.450;-0.01718
 993.31; 5959.575;  204.817; 5735.783;-0.01723
 993.86; 5874.908;  230.483; 5683.783;-0.01496
 994.41; 5786.908;  235.150; 5580.117;-0.01649
 994.96; 5671.242;  226.483; 5473.117;-0.01610
 995.51; 5587.242;  218.817; 5377.783;-0.01728
 996.06; 5501.908;  208.483; 5293.783;-0.01742
 996.61; 5416.908;  222.483; 5201.783;-0.01837
 997.15; 5329.575;  236.150; 5083.450;-0.02151
 997.70; 5215.242;  241.150; 4965.117;-0.02241
 998.25; 5091.242;  247.483; 4873.450;-0.01998
 998.80; 4943.242;  248.483; 4740.117;-0.01921
 999.35; 4785.908;  249.483; 4623.450;-0.01584
 999.90; 4606.908;  236.150; 4455.117;-0.01535
1000.44; 4494.908;  224.483; 4340.450;-0.01600
1000.99; 4373.575;  232.483; 4190.783;-0.01961
1001.54; 4252.242;  237.150; 4067.450;-0.02046
1002.09; 4082.242;  231.817; 3939.117;-0.01645
1002.64; 4010.908;  238.483; 3855.450;-0.01828
1003.18; 3930.908;  240.483; 3766.783;-0.01976
1003.73; 3866.908;  238.483; 3661.450;-0.02532
1004.28; 3748.242;  226.817; 3584.450;-0.02069
1004.83; 3685.908;  209.483; 3488.117;-0.02544
1005.38; 3581.575;  210.150; 3420.783;-0.02122
1005.92; 3529.575;  219.150; 3321.783;-0.02815
1006.47; 3433.575;  236.817; 3231.783;-0.02832
1007.02; 3387.575;  235.483; 3140.117;-0.03551
1007.57; 3277.575;  222.817; 3087.450;-0.02791
1008.11; 3208.242;  211.817; 3028.450;-0.02687
1008.66; 3108.908;  205.150; 2973.450;-0.02075
1009.21; 3084.242;  192.483; 2907.783;-0.02734
1009.75; 3023.908;  177.817; 2862.117;-0.02542
1010.30; 2961.575;  170.150; 2793.117;-0.02703
1010.85; 2834.242;  176.817; 2712.783;-0.02032
1011.40; 2781.242;  204.150; 2628.450;-0.02654
1011.94; 2690.242;  221.817; 2545.783;-0.02619
1012.49; 2608.908;  216.483; 2464.450;-0.02705
1013.04; 2506.242;  194.150; 2362.117;-0.02795
1013.58; 2423.908;  184.150; 2325.117;-0.01959
1014.13; 2337.908;  188.483; 2268.117;-0.01434
1014.68; 2270.575;  196.483; 2233.450;-0.00784
1015.23; 2231.908;  203.150; 2181.450;-0.01094
1015.77; 2208.575;  199.817; 2113.117;-0.02114
1016.32; 2174.575;  204.817; 2072.450;-0.02312
1016.87; 2114.242;  209.483; 2012.783;-0.02377
1017.41; 2076.575;  206.817; 1977.450;-0.02366
1017.96; 2007.242;  194.817; 1953.450;-0.01308
1018.50; 1974.242;  186.483; 1926.450;-0.01177
1019.05; 1912.575;  188.483; 1903.450;-0.00230
1019.60; 1862.575;  182.817; 1815.783;-0.01227
1020.14; 1810.575;  196.150; 1752.783;-0.01583
1020.69; 1782.575;  196.150; 1698.117;-0.02376
1021.24; 1754.575;  209.483; 1650.450;-0.03030
1021.78; 1687.575;  188.483; 1620.450;-0.01990
1022.33; 1653.242;  190.150; 1592.450;-0.01843
1022.87; 1593.242;  182.817; 1587.783;-0.00168
1023.42; 1562.575;  198.150; 1567.117; 0.00144
1023.97; 1475.908;  200.150; 1516.117; 0.01348
1024.51; 1461.908;  212.150; 1465.117; 0.00111
1025.06; 1400.908;  200.483; 1401.117; 0.00008
1025.60; 1380.908;  198.817; 1340.783;-0.01500
1026.15; 1300.242;  181.150; 1307.783; 0.00292
1026.70; 1306.242;  185.483; 1284.783;-0.00840
1027.24; 1291.908;  195.483; 1279.783;-0.00483
1027.79; 1298.575;  200.483; 1270.450;-0.01127
1028.33; 1271.908;  197.483; 1252.450;-0.00794
1028.88; 1246.242;  188.817; 1215.450;-0.01283
1029.42; 1217.242;  208.150; 1198.450;-0.00816
1029.97; 1169.908;  197.817; 1156.450;-0.00605
1030.51; 1141.908;  190.150; 1127.117;-0.00680
1031.06; 1135.908;  182.817; 1088.783;-0.02202
1031.61; 1137.908;  192.483; 1063.117;-0.03579
1032.15; 1142.242;  210.150; 1050.450;-0.04502
1032.70; 1123.242;  202.817; 1024.117;-0.04949
1033.24; 1111.908;  206.483; 1018.117;-0.04749
1033.79; 1079.575;  200.817; 1020.450;-0.03025
1034.33; 1030.575;  199.817; 1016.450;-0.00745
1034.88; 1007.908;  201.817; 1008.783; 0.00047
1035.42;  997.575;  202.817;  979.450;-0.01002
1035.97; 1006.575;  204.483;  950.450;-0.03150
1036.51;  991.242;  206.483;  931.450;-0.03442
1037.06;  984.242;  200.817;  944.117;-0.02283
1037.60;  966.908;  207.150;  948.783;-0.01049
1038.14;  949.575;  204.150;  928.783;-0.01229
1038.69;  955.908;  222.150;  927.783;-0.01697
1039.23;  947.575;  234.483;  935.783;-0.00724
1039.78;  949.575;  235.150;  948.783;-0.00048
1040.32;  928.908;  224.483;  915.783;-0.00817
1040.87;  948.908;  208.483;  887.117;-0.03785
1041.41;  943.908;  198.150;  864.117;-0.04915
1041.96;  925.908;  200.817;  882.783;-0.02663
1042.50;  910.242;  197.817;  893.117;-0.01057
1043.04;  929.242;  213.817;  899.117;-0.01868
1043.59;  937.242;  217.150;  867.450;-0.04427
1044.13;  908.908;  212.483;  869.450;-0.02533
1044.68;  881.908;  205.817;  862.117;-0.01290
1045.22;  861.908;  199.150;  873.783; 0.00771
1045.76;  876.575;  201.817;  869.450;-0.00461
1046.31;  855.242;  193.483;  861.783; 0.00427
1046.85;  847.908;  200.483;  842.117;-0.00390
1047.40;  815.908;  202.483;  813.783;-0.00151
1047.94;  817.242;  215.150;  808.783;-0.00614
1048.48;  812.575;  211.150;  810.117;-0.00178
1049.03;  807.242;  214.483;  793.450;-0.01022
1049.57;  826.908;  229.150;  787.117;-0.02992
1050.11;  830.242;  222.817;  774.117;-0.04210
1050.66;  832.242;  218.483;  779.117;-0.03932
1051.20;  821.242;  206.483;  794.450;-0.01935
1051.74;  793.908;  200.817;  788.117;-0.00426
1052.29;  788.908;  200.150;  780.783;-0.00604
1052.83;  747.908;  199.150;  748.117; 0.00016
1053.37;  760.908;  224.817;  744.783;-0.01326
1053.92;  766.242;  234.150;  739.783;-0.02215
1054.46;  761.908;  236.483;  734.117;-0.02360
1055.00;  763.908;  231.483;  739.117;-0.02071
1055.55;  757.908;  230.817;  738.117;-0.01662
1056.09;  780.575;  223.817;  747.783;-0.02636
1056.63;  761.908;  215.817;  711.783;-0.04181
1057.17;  756.575;  216.483;  709.117;-0.03994
1057.72;  748.908;  225.150;  697.450;-0.04491
1058.26;  737.242;  223.483;  705.783;-0.02744
1058.80;  712.575;  229.817;  700.450;-0.01105
1059.35;  693.908;  230.483;  686.450;-0.00705
1059.89;  692.575;  230.150;  672.450;-0.01932
1060.43;  688.575;  227.817;  654.783;-0.03308
1060.97;  672.575;  223.817;  667.117;-0.00531
1061.52;  666.242;  231.150;  682.450; 0.01588
1062.06;  656.908;  231.483;  671.450; 0.01460
1062.60;  669.575;  236.483;  658.450;-0.01130
1063.14;  671.575;  232.483;  640.783;-0.03158
1063.69;  678.242;  216.483;  640.117;-0.03742
1064.23;  654.575;  208.817;  619.783;-0.03529
1064.77;  626.575;  200.483;  598.450;-0.02966
1065.31;  612.242;  201.817;  577.450;-0.03847
1065.85;  607.242;  206.483;  567.117;-0.04582
1066.40;  611.242;  205.150;  579.450;-0.03540
1066.94;  608.242;  217.817;  579.117;-0.03367
1067.48;  602.242;  209.150;  587.783;-0.01627
1068.02;  594.575;  233.817;  562.450;-0.04050
1068.56;  596.575;  216.817;  564.783;-0.03797
1069.10;  583.908;  212.817;  549.783;-0.04189
1069.65;  576.908;  195.817;  566.450;-0.01208
1070.19;  576.575;  208.817;  566.783;-0.01172
1070.73;  586.575;  223.817;  582.783;-0.00456
1071.27;  568.242;  215.817;  567.117;-0.00139
1071.81;  556.575;  207.150;  562.117; 0.00683
1072.35;  559.908;  201.817;  549.117;-0.01329
1072.90;  571.908;  197.150;  546.783;-0.03014
1073.44;  564.242;  202.817;  540.117;-0.03000
1073.98;  554.908;  206.150;  531.450;-0.03024
1074.52;  558.242;  224.483;  538.783;-0.02609
1075.06;  545.242;  218.483;  542.450;-0.00373
1075.60;  527.908;  207.483;  531.450; 0.00477
1076.14;  511.575;  204.817;  514.117; 0.00358
1076.68;  506.908;  207.150;  504.450;-0.00358
1077.22;  527.242;  225.817;  504.783;-0.03363
1077.76;  534.575;  214.817;  498.117;-0.05258
1078.31;  530.575;  229.817;  499.783;-0.04691
1078.85;  539.908;  226.483;  517.117;-0.03279
1079.39;  547.575;  243.817;  525.450;-0.03284
1079.93;  545.908;  237.817;  507.783;-0.05737
1080.47;  516.908;  227.483;  476.450;-0.06539
1081.01;  499.575;  216.150;  474.783;-0.03975
1081.55;  516.908;  208.483;  488.783;-0.04153
1082.09;  517.242;  205.817;  488.783;-0.04162
1082.63;  519.908;  210.150;  496.450;-0.03420
1083.17;  521.242;  221.150;  500.783;-0.03066
1083.71;  517.242;  228.817;  501.450;-0.02445
1084.25;  510.575;  224.483;  471.117;-0.06445
1084.79;  492.242;  214.483;  446.450;-0.07824
1085.33;  487.575;  202.817;  450.783;-0.06008
1085.87;  477.575;  199.483;  468.450;-0.01449
1086.41;  484.908;  214.483;  471.450;-0.02217
1086.95;  481.575;  222.150;  467.117;-0.02490
1087.49;  501.575;  225.817;  454.783;-0.08076
1088.03;  493.908;  216.817;  454.117;-0.06733
1088.57;  497.575;  219.817;  450.783;-0.08012
1089.11;  471.242;  222.150;  448.117;-0.04231
1089.65;  460.242;  233.150;  458.783;-0.00280
1090.19;  460.908;  238.483;  468.117; 0.01385
1090.73;  464.575;  240.483;  471.783; 0.01375
1091.27;  474.908;  238.817;  466.117;-0.01648
1091.81;  473.242;  238.483;  458.117;-0.02892
1092.35;  471.575;  247.483;  461.450;-0.02008
1092.89;  456.575;  232.150;  457.450; 0.00169
1093.43;  434.242;  223.817;  445.783; 0.02319
1093.97;  437.575;  210.150;  441.117; 0.00671
1094.51;  450.908;  208.483;  440.450;-0.01915
1095.04;  460.242;  218.483;  442.783;-0.03255
1095.58;  465.242;  238.817;  436.783;-0.05833
1096.12;  461.242;  242.817;  428.783;-0.06987
1096.66;  466.242;  239.817;  430.450;-0.07473
1097.20;  445.575;  235.817;  449.450; 0.00795
1097.74;  447.575;  246.817;  456.783; 0.01948
1098.28;  448.575;  235.817;  457.117; 0.01709
1098.82;  449.908;  230.483;  453.117; 0.00630
1099.36;  443.908;  228.150;  446.450; 0.00509
1099.89;  443.575;  230.150;  447.450; 0.00781

