
Integration time [ms]:   0.300
Averaging Nr. [scans]: 1
Smoothing Nr. [pixels]: 1
Data measured with spectrometer [name]: 1906252U1
Wave   ;Sample   ;Dark     ;Reference;Absorbance
[nm]   ;[counts] ;[counts] ;[counts] ;[A.U]

 161.30;  302.240;  271.207;  271.637; 0.00000
 161.90;  274.645;  265.524;  261.712; 0.00000
 162.51;  269.698;  259.038;  260.433;-0.88340
 163.11;  262.767;  265.693;  251.834; 0.00000
 163.71;  267.735;  276.696;  266.803; 0.00000
 164.31;  267.752;  294.270;  273.488; 0.00000
 164.91;  277.342;  288.393;  287.410; 0.00000
 165.52;  280.194;  277.299;  279.261;-0.16894
 166.12;  273.319;  271.979;  273.718; 0.11317
 166.72;  271.690;  272.971;  259.755; 0.00000
 167.32;  276.308;  271.656;  271.040; 0.00000
 167.93;  282.787;  261.266;  267.518;-0.53685
 168.53;  283.564;  254.112;  260.296;-0.67789
 169.13;  291.195;  264.427;  257.261; 0.00000
 169.73;  293.619;  271.677;  266.351; 0.00000
 170.33;  310.822;  291.614;  320.561; 0.17812
 170.94;  318.328;  317.756;  347.746; 1.71930
 171.54;  336.479;  335.278;  387.239; 1.63612
 172.14;  339.110;  338.926;  375.538; 2.29766
 172.74;  340.754;  324.358;  373.181; 0.47387
 173.34;  343.476;  319.589;  355.569; 0.17791
 173.95;  348.163;  309.596;  343.923;-0.05058
 174.55;  345.468;  318.289;  355.228; 0.13325
 175.15;  349.728;  320.689;  367.155; 0.20415
 175.75;  337.436;  322.370;  380.195; 0.58411
 176.35;  354.942;  332.415;  382.036; 0.34296
 176.95;  364.478;  327.740;  392.907; 0.24891
 177.56;  380.259;  327.608;  398.355; 0.12830
 178.16;  361.202;  316.738;  399.298; 0.26875
 178.76;  339.393;  316.306;  398.487; 0.55140
 179.36;  326.251;  310.874;  401.343; 0.76964
 179.96;  330.721;  304.800;  395.813; 0.54545
 180.56;  340.876;  308.938;  392.969; 0.42013
 181.17;  361.354;  318.009;  403.448; 0.29472
 181.77;  376.086;  318.897;  417.181; 0.23517
 182.37;  368.350;  306.653;  404.111; 0.19855
 182.97;  373.361;  319.309;  413.789; 0.24253
 183.57;  393.850;  323.525;  427.944; 0.17167
 184.17;  430.011;  336.736;  473.104; 0.16495
 184.78;  428.161;  316.624;  484.587; 0.17779
 185.38;  436.406;  315.012;  504.833; 0.19415
 185.98;  441.876;  315.783;  504.638; 0.17543
 186.58;  456.687;  316.598;  510.449; 0.14106
 187.18;  449.916;  313.002;  491.678; 0.11562
 187.78;  464.974;  324.256;  526.070; 0.15660
 188.38;  481.397;  331.840;  541.159; 0.14600
 188.98;  494.103;  337.804;  574.199; 0.17968
 189.59;  507.768;  332.575;  567.529; 0.12747
 190.19;  522.616;  326.870;  580.708; 0.11286
 190.79;  522.846;  326.914;  573.939; 0.10064
 191.39;  510.858;  317.159;  564.285; 0.10579
 191.99;  501.603;  322.498;  545.363; 0.09493
 192.59;  505.837;  317.307;  539.929; 0.07219
 193.19;  488.951;  313.765;  525.712; 0.08273
 193.79;  471.519;  325.164;  530.280; 0.14659
 194.39;  451.565;  328.250;  517.658; 0.18638
 195.00;  448.048;  327.216;  511.139; 0.18245
 195.60;  441.973;  305.566;  480.732; 0.10861
 196.20;  424.047;  304.088;  469.473; 0.13946
 196.80;  397.230;  305.278;  453.989; 0.20878
 197.40;  379.427;  313.686;  455.186; 0.33292
 198.00;  385.363;  320.693;  452.457; 0.30909
 198.60;  390.850;  317.270;  442.943; 0.23248
 199.20;  384.754;  312.435;  427.513; 0.20174
 199.80;  365.662;  303.957;  416.753; 0.26197
 200.40;  346.443;  299.492;  396.868; 0.31680
 201.00;  331.342;  293.841;  371.434; 0.31578
 201.60;  314.644;  292.845;  340.403; 0.33878
 202.21;  305.481;  298.995;  352.240; 0.91430
 202.81;  322.125;  303.760;  367.883; 0.54302
 203.41;  333.831;  301.801;  377.921; 0.37595
 204.01;  332.187;  296.447;  373.611; 0.33426
 204.61;  312.709;  287.965;  374.799; 0.54522
 205.21;  315.239;  280.528;  391.328; 0.50408
 205.81;  333.812;  276.000;  394.567; 0.31195
 206.41;  338.578;  281.190;  389.667; 0.27652
 207.01;  339.426;  291.585;  373.516; 0.23365
 207.61;  319.464;  290.832;  349.221; 0.30949
 208.21;  321.997;  294.007;  340.088; 0.21651
 208.81;  316.958;  285.376;  350.048; 0.31128
 209.41;  321.535;  292.971;  355.294; 0.33882
 210.01;  315.741;  286.985;  361.835; 0.41545
 210.61;  335.230;  290.534;  351.990; 0.13829
 211.21;  329.460;  293.399;  356.219; 0.24106
 211.81;  337.835;  300.157;  352.258; 0.14076
 212.41;  312.423;  301.896;  344.513; 0.60730
 213.01;  328.533;  296.332;  351.625; 0.23480
 213.61;  324.580;  285.263;  357.339; 0.26321
 214.21;  332.653;  282.939;  368.411; 0.23535
 214.81;  322.297;  278.704;  361.387; 0.27800
 215.41;  323.889;  282.466;  362.645; 0.28682
 216.01;  318.765;  278.247;  362.189; 0.31633
 216.61;  313.035;  287.920;  357.792; 0.44438
 217.21;  301.632;  290.599;  357.391; 0.78202
 217.81;  307.709;  297.221;  367.800; 0.82797
 218.41;  315.990;  301.628;  379.081; 0.73183
 219.01;  329.413;  307.801;  388.505; 0.57220
 219.61;  326.814;  301.739;  384.906; 0.52071
 220.21;  322.084;  297.568;  378.507; 0.51872
 220.81;  311.956;  283.737;  372.713; 0.49873
 221.41;  317.934;  284.091;  376.024; 0.43401
 222.01;  325.293;  280.426;  372.049; 0.31008
 222.61;  331.694;  298.953;  367.451; 0.32059
 223.21;  329.344;  301.813;  357.103; 0.30283
 223.81;  342.584;  301.952;  360.676; 0.15995
 224.41;  350.862;  281.875;  343.618;-0.04818
 225.01;  346.162;  269.317;  340.250;-0.03477
 225.61;  325.943;  274.108;  341.033; 0.11096
 226.21;  321.827;  273.112;  349.918; 0.19773
 226.81;  311.084;  286.490;  349.175; 0.40634
 227.41;  324.190;  284.059;  344.282; 0.17627
 228.01;  317.484;  302.172;  351.241; 0.50578
 228.61;  338.718;  306.727;  360.474; 0.22532
 229.21;  336.611;  303.825;  362.700; 0.25424
 229.81;  346.701;  308.998;  372.791; 0.22839
 230.41;  331.973;  299.055;  383.396; 0.40861
 231.01;  333.518;  300.808;  405.942; 0.50706
 231.61;  321.672;  287.307;  401.095; 0.51999
 232.21;  333.733;  300.328;  383.489; 0.39611
 232.81;  316.506;  296.307;  370.928; 0.56752
 233.41;  319.907;  302.578;  372.995; 0.60890
 234.00;  321.162;  298.240;  379.918; 0.55185
 234.60;  335.866;  290.487;  363.623; 0.20727
 235.20;  333.840;  295.152;  359.264; 0.21936
 235.80;  321.342;  295.330;  365.432; 0.43055
 236.40;  318.288;  302.765;  379.044; 0.69144
 237.00;  321.733;  303.584;  384.824; 0.65090
 237.60;  318.893;  294.000;  377.651; 0.52640
 238.20;  317.123;  295.121;  389.214; 0.63109
 238.80;  318.245;  274.112;  389.668; 0.41803
 239.40;  331.647;  279.177;  403.402; 0.37430
 240.00;  344.885;  284.599;  402.640; 0.29182
 240.59;  341.222;  298.133;  401.312; 0.37922
 241.19;  350.988;  297.989;  399.745; 0.28329
 241.79;  341.958;  288.710;  384.715; 0.25599
 242.39;  342.153;  292.222;  383.909; 0.26394
 242.99;  339.698;  286.642;  375.121; 0.22211
 243.59;  339.338;  289.230;  388.763; 0.29806
 244.19;  338.803;  286.160;  385.560; 0.27605
 244.79;  314.229;  287.511;  384.652; 0.56059
 245.39;  313.465;  287.293;  395.554; 0.61663
 245.98;  304.364;  273.053;  391.453; 0.57765
 246.58;  311.200;  274.487;  389.290; 0.49513
 247.18;  334.273;  285.342;  384.364; 0.30615
 247.78;  344.334;  295.696;  398.758; 0.32612
 248.38;  357.072;  288.656;  421.162; 0.28708
 248.98;  339.563;  277.356;  419.988; 0.36037
 249.58;  348.580;  265.673;  430.671; 0.29889
 250.17;  350.085;  275.285;  426.842; 0.30667
 250.77;  352.878;  283.143;  431.967; 0.32923
 251.37;  339.998;  286.929;  425.089; 0.41554
 251.97;  331.715;  270.293;  429.805; 0.41447
 252.57;  325.460;  265.298;  436.882; 0.45516
 253.17;  342.415;  272.929;  449.172; 0.40421
 253.77;  358.525;  284.186;  466.282; 0.38908
 254.36;  364.686;  295.474;  468.774; 0.39862
 254.96;  360.478;  295.333;  480.567; 0.45384
 255.56;  341.546;  288.604;  484.301; 0.56779
 256.16;  344.755;  278.462;  506.509; 0.53656
 256.76;  327.688;  277.524;  496.109; 0.63923
 257.36;  335.849;  276.735;  508.603; 0.59355
 257.95;  321.626;  264.992;  503.713; 0.62481
 258.55;  331.664;  264.239;  518.084; 0.57575
 259.15;  335.034;  260.564;  510.454; 0.52577
 259.75;  343.911;  269.345;  523.998; 0.53341
 260.35;  348.561;  267.461;  538.318; 0.52372
 260.94;  335.339;  268.819;  539.764; 0.60993
 261.54;  337.346;  275.530;  547.771; 0.64385
 262.14;  327.332;  279.723;  553.422; 0.75958
 262.74;  345.415;  296.084;  592.169; 0.77830
 263.34;  359.512;  285.302;  604.600; 0.63373
 263.93;  362.113;  271.414;  619.201; 0.58371
 264.53;  362.029;  269.158;  628.783; 0.58797
 265.13;  342.143;  270.950;  628.566; 0.70098
 265.73;  345.711;  275.426;  648.466; 0.72490
 266.33;  362.310;  278.566;  678.397; 0.67892
 266.92;  352.920;  275.029;  689.673; 0.72619
 267.52;  361.972;  279.954;  705.726; 0.71527
 268.12;  346.192;  273.264;  717.281; 0.78450
 268.72;  344.419;  281.951;  749.175; 0.87387
 269.31;  339.748;  293.596;  782.505; 1.02503
 269.91;  328.930;  296.813;  783.686; 1.18068
 270.51;  341.993;  298.884;  823.747; 1.08547
 271.11;  339.931;  296.018;  844.685; 1.09672
 271.70;  339.931;  281.274;  877.686; 1.00722
 272.30;  352.834;  270.568;  887.924; 0.87531
 272.90;  362.323;  264.784;  909.412; 0.82013
 273.50;  381.433;  274.785;  916.521; 0.77940
 274.09;  373.450;  285.359;  947.539; 0.87604
 274.69;  374.934;  293.425;  961.690; 0.91374
 275.29;  369.619;  297.126; 1011.041; 0.99335
 275.89;  369.748;  301.162; 1057.168; 1.04229
 276.48;  366.613;  306.441; 1108.365; 1.12474
 277.08;  369.912;  303.217; 1149.330; 1.10333
 277.68;  388.510;  300.562; 1156.928; 0.98844
 278.28;  406.328;  297.934; 1188.748; 0.91478
 278.87;  426.459;  305.120; 1219.213; 0.87699
 279.47;  435.933;  316.402; 1279.019; 0.90597
 280.07;  429.785;  311.564; 1306.537; 0.92512
 280.66;  435.053;  305.599; 1329.806; 0.89827
 281.26;  431.852;  299.502; 1356.605; 0.90239
 281.86;  451.375;  299.353; 1408.460; 0.86307
 282.46;  467.914;  289.111; 1464.667; 0.81787
 283.05;  480.423;  270.001; 1525.842; 0.77584
 283.65;  493.830;  269.267; 1577.248; 0.76526
 284.25;  490.952;  276.537; 1628.707; 0.79978
 284.84;  504.063;  297.639; 1660.819; 0.81979
 285.44;  521.261;  304.585; 1722.349; 0.81579
 286.04;  543.216;  306.626; 1767.304; 0.79056
 286.63;  552.462;  299.604; 1827.551; 0.78123
 287.23;  565.160;  285.934; 1878.582; 0.75616
 287.83;  585.214;  285.987; 1956.635; 0.74688
 288.42;  611.036;  282.947; 2012.456; 0.72193
 289.02;  625.598;  281.018; 2081.351; 0.71806
 289.62;  634.617;  274.153; 2105.373; 0.70588
 290.21;  663.460;  278.965; 2173.882; 0.69270
 290.81;  702.411;  296.139; 2171.832; 0.66435
 291.41;  732.858;  301.675; 2217.279; 0.64764
 292.00;  739.503;  287.695; 2273.257; 0.64293
 292.60;  747.150;  266.816; 2355.570; 0.63834
 293.20;  754.532;  269.053; 2441.953; 0.65087
 293.79;  789.452;  275.331; 2498.541; 0.63592
 294.39;  815.707;  284.326; 2544.463; 0.62873
 294.99;  848.007;  280.435; 2588.095; 0.60915
 295.58;  856.207;  284.687; 2619.961; 0.61131
 296.18;  887.149;  271.100; 2672.236; 0.59080
 296.78;  907.437;  267.474; 2741.524; 0.58725
 297.37;  961.158;  256.039; 2819.912; 0.56063
 297.97;  988.355;  255.858; 2927.442; 0.56196
 298.57; 1034.136;  262.727; 2989.557; 0.54837
 299.16; 1048.366;  278.359; 3083.789; 0.56150
 299.76; 1066.943;  281.775; 3176.366; 0.56662
 300.35; 1071.941;  281.214; 3269.362; 0.57738
 300.95; 1124.040;  278.404; 3324.462; 0.55655
 301.55; 1183.423;  287.229; 3346.846; 0.53327
 302.14; 1217.941;  278.314; 3431.366; 0.52578
 302.74; 1277.438;  277.164; 3537.862; 0.51319
 303.33; 1302.151;  277.506; 3665.575; 0.51938
 303.93; 1370.863;  284.053; 3763.621; 0.50537
 304.53; 1384.318;  290.889; 3809.743; 0.50761
 305.12; 1436.644;  285.666; 3889.067; 0.49565
 305.72; 1489.992;  304.345; 3962.749; 0.48934
 306.31; 1537.402;  292.556; 4062.826; 0.48126
 306.91; 1577.816;  290.122; 4183.574; 0.48052
 307.51; 1601.977;  280.000; 4278.734; 0.48070
 308.10; 1652.291;  295.710; 4394.048; 0.48016
 308.70; 1688.325;  291.190; 4468.751; 0.47568
 309.29; 1748.399;  287.634; 4547.826; 0.46485
 309.89; 1782.249;  264.902; 4638.675; 0.45977
 310.48; 1834.331;  273.673; 4739.754; 0.45662
 311.08; 1879.027;  268.620; 4876.118; 0.45653
 311.68; 1926.292;  273.221; 4959.384; 0.45253
 312.27; 1994.520;  278.703; 5074.278; 0.44637
 312.87; 2054.424;  271.869; 5225.848; 0.44391
 313.46; 2111.923;  276.691; 5385.013; 0.44459
 314.06; 2189.129;  276.193; 5529.885; 0.43876
 314.65; 2229.469;  282.238; 5632.559; 0.43896
 315.25; 2297.832;  283.262; 5774.255; 0.43547
 315.85; 2323.121;  277.637; 5914.876; 0.44027
 316.44; 2407.516;  287.913; 6071.938; 0.43598
 317.04; 2452.563;  295.255; 6216.984; 0.43854
 317.63; 2527.585;  310.823; 6400.341; 0.43886
 318.23; 2572.205;  298.737; 6546.296; 0.43902
 318.82; 2663.793;  293.221; 6674.883; 0.43008
 319.42; 2711.789;  273.276; 6781.545; 0.42634
 320.01; 2791.222;  280.055; 6929.646; 0.42292
 320.61; 2848.229;  290.511; 7164.652; 0.42937
 321.20; 2926.186;  285.758; 7272.939; 0.42263
 321.80; 2989.963;  292.860; 7497.718; 0.42673
 322.39; 3015.449;  275.154; 7636.540; 0.42916
 322.99; 3091.797;  275.755; 7857.556; 0.43013
 323.58; 3217.441;  286.597; 7977.531; 0.41899
 324.18; 3316.585;  287.901; 8124.673; 0.41288
 324.77; 3419.591;  292.485; 8318.013; 0.40933
 325.37; 3452.744;  278.984; 8442.167; 0.41029
 325.96; 3518.870;  276.253; 8588.958; 0.40885
 326.56; 3562.673;  298.768; 8771.095; 0.41427
 327.15; 3629.022;  300.036; 8947.778; 0.41459
 327.75; 3726.113;  300.925; 9129.536; 0.41121
 328.34; 3807.417;  272.723; 9291.838; 0.40681
 328.94; 3877.150;  266.072; 9447.905; 0.40529
 329.53; 3962.456;  277.765; 9658.876; 0.40585
 330.13; 4014.705;  293.098; 9872.460; 0.41061
 330.72; 4078.484;  297.428;10112.576; 0.41428
 331.32; 4127.657;  296.807;10347.750; 0.41891
 331.91; 4221.621;  286.021;10578.045; 0.41749
 332.51; 4317.006;  290.846;10832.428; 0.41801
 333.10; 4400.598;  280.941;11112.686; 0.41984
 333.69; 4491.448;  268.720;11343.870; 0.41876
 334.29; 4494.873;  259.020;11372.294; 0.41890
 334.88; 4550.465;  263.526;11404.218; 0.41476
 335.48; 4567.092;  274.151;11347.513; 0.41152
 336.07; 4606.975;  277.361;11521.065; 0.41446
 336.67; 4623.033;  271.793;11561.792; 0.41408
 337.26; 4636.651;  270.478;11724.744; 0.41887
 337.86; 4739.316;  274.661;11795.073; 0.41168
 338.45; 4841.113;  285.081;11996.201; 0.41001
 339.04; 4890.293;  280.248;12122.714; 0.40974
 339.64; 4929.099;  279.247;12324.855; 0.41339
 340.23; 4975.500;  276.541;12444.594; 0.41322
 340.83; 5059.242;  283.446;12579.002; 0.41070
 341.42; 5119.662;  284.034;12728.085; 0.41051
 342.02; 5138.962;  280.810;12860.717; 0.41321
 342.61; 5184.082;  285.029;12994.842; 0.41403
 343.20; 5251.601;  280.703;13173.363; 0.41391
 343.80; 5344.754;  275.024;13326.514; 0.41068
 344.39; 5435.352;  277.525;13574.777; 0.41130
 344.99; 5467.494;  284.701;13698.586; 0.41299
 345.58; 5498.906;  281.629;13941.331; 0.41800
 346.17; 5513.850;  272.425;14086.941; 0.42089
 346.77; 5640.409;  263.601;14425.499; 0.42060
 347.36; 5740.647;  267.766;14640.403; 0.41932
 347.96; 5859.317;  271.456;14918.073; 0.41849
 348.55; 5913.990;  272.039;15018.413; 0.41726
 349.14; 5981.840;  269.152;15148.264; 0.41574
 349.74; 6102.213;  282.193;15379.635; 0.41398
 350.33; 6215.192;  292.264;15619.281; 0.41292
 350.92; 6270.668;  292.029;15990.758; 0.41926
 351.52; 6308.295;  276.988;16197.719; 0.42155
 352.11; 6352.947;  277.642;16449.038; 0.42518
 352.70; 6486.709;  293.221;16652.467; 0.42183
 353.30; 6586.263;  299.069;16923.354; 0.42229
 353.89; 6669.402;  289.556;17199.826; 0.42334
 354.49; 6719.367;  295.537;17471.125; 0.42712
 355.08; 6787.149;  303.789;17648.240; 0.42736
 355.67; 6904.786;  306.509;17850.877; 0.42471
 356.27; 7049.325;  292.678;18013.082; 0.41874
 356.86; 7109.625;  288.376;18230.048; 0.42000
 357.45; 7118.908;  297.756;18507.331; 0.42644
 358.05; 7140.190;  297.214;18684.613; 0.42928
 358.64; 7267.876;  292.504;18894.298; 0.42599
 359.23; 7423.068;  289.300;19081.825; 0.42067
 359.83; 7502.958;  289.121;19433.380; 0.42387
 360.42; 7554.177;  293.174;19722.600; 0.42746
 361.01; 7600.731;  287.355;19981.487; 0.43022
 361.61; 7703.102;  287.502;20183.522; 0.42862
 362.20; 7802.965;  294.987;20496.718; 0.42987
 362.79; 7871.214;  302.910;20634.303; 0.42917
 363.38; 7938.091;  301.613;20815.514; 0.42916
 363.98; 7996.960;  289.171;20943.715; 0.42809
 364.57; 8068.394;  277.744;21176.149; 0.42854
 365.16; 8130.411;  288.573;21351.502; 0.42910
 365.76; 8208.529;  293.720;21537.287; 0.42879
 366.35; 8255.452;  294.920;21731.542; 0.43021
 366.94; 8288.370;  286.459;21913.791; 0.43181
 367.53; 8347.044;  286.426;22067.466; 0.43171
 368.13; 8446.733;  291.994;22246.489; 0.43011
 368.72; 8515.205;  285.482;22413.295; 0.42955
 369.31; 8508.282;  292.281;22597.374; 0.43374
 369.91; 8490.451;  283.382;22746.877; 0.43729
 370.50; 8599.303;  291.699;22820.059; 0.43325
 371.09; 8716.488;  278.017;22946.909; 0.42917
 371.68; 8834.570;  286.967;23106.324; 0.42646
 372.28; 8889.162;  294.984;23340.584; 0.42838
 372.87; 8913.080;  297.367;23443.502; 0.42919
 373.46; 8930.501;  297.723;23614.255; 0.43151
 374.05; 9027.072;  287.889;23758.158; 0.42905
 374.65; 9133.085;  290.440;23950.173; 0.42743
 375.24; 9236.594;  272.918;24146.349; 0.42543
 375.83; 9229.282;  275.848;24331.370; 0.42923
 376.42; 9236.806;  273.516;24515.563; 0.43210
 377.02; 9307.411;  293.907;24527.502; 0.42952
 377.61; 9384.245;  288.112;24762.668; 0.42986
 378.20; 9496.029;  297.747;24944.118; 0.42805
 378.79; 9573.128;  297.015;25086.217; 0.42690
 379.38; 9681.355;  282.191;25204.109; 0.42349
 379.98; 9771.049;  267.243;25344.469; 0.42138
 380.57; 9853.329;  272.112;25606.751; 0.42229
 381.16; 9945.705;  291.609;25727.129; 0.42073
 381.75;10033.394;  289.589;25767.151; 0.41743
 382.35;10128.520;  283.703;25937.612; 0.41595
 382.94;10190.281;  271.231;26182.039; 0.41701
 383.53;10303.668;  279.541;26558.760; 0.41857
 384.12;10349.203;  269.432;26865.627; 0.42137
 384.71;10490.263;  284.069;27028.687; 0.41837
 385.31;10530.134;  287.699;27353.893; 0.42202
 385.90;10696.350;  299.731;27598.110; 0.41924
 386.49;10799.561;  283.306;27919.987; 0.41962
 387.08;10948.844;  296.763;28085.602; 0.41644
 387.67;11045.176;  302.047;28384.267; 0.41730
 388.26;11237.002;  312.463;28670.094; 0.41427
 388.86;11463.702;  297.866;29041.131; 0.41064
 389.45;11649.563;  285.685;29324.329; 0.40745
 390.04;11768.760;  279.860;29566.863; 0.40640
 390.63;11886.604;  284.795;29878.048; 0.40667
 391.22;11945.391;  294.422;30097.179; 0.40789
 391.81;12013.314;  303.408;30368.117; 0.40950
 392.41;12098.156;  324.211;30517.642; 0.40899
 393.00;12222.433;  349.022;30747.606; 0.40828
 393.59;12393.018;  379.676;31111.212; 0.40792
 394.18;12540.000;  399.780;31505.223; 0.40861
 394.77;12766.342;  433.703;31930.599; 0.40721
 395.36;12916.060;  473.557;32244.356; 0.40712
 395.95;13092.680;  524.323;32561.017; 0.40637
 396.55;13208.363;  566.236;32856.406; 0.40725
 397.14;13392.640;  594.577;33298.717; 0.40746
 397.73;13602.203;  601.786;33627.642; 0.40490
 398.32;13772.281;  612.294;34204.404; 0.40698
 398.91;13982.861;  621.039;34614.988; 0.40554
 399.50;14198.261;  632.059;35200.379; 0.40622
 400.09;14559.542;  605.452;35675.306; 0.40023
 400.68;14848.062;  582.293;36366.134; 0.39939
 401.27;15150.646;  548.561;37014.694; 0.39747
 401.87;15402.932;  525.771;37604.957; 0.39661
 402.46;15659.554;  501.053;38119.893; 0.39475
 403.05;15936.946;  484.389;38675.942; 0.39297
 403.64;16231.443;  490.521;39240.769; 0.39124
 404.23;16532.757;  484.797;39841.080; 0.38959
 404.82;16784.040;  502.588;40438.695; 0.38967
 405.41;17005.497;  491.629;41140.816; 0.39120
 406.00;17234.329;  497.890;41752.976; 0.39181
 406.59;17537.167;  479.966;42383.807; 0.39035
 407.18;17819.750;  482.149;42943.385; 0.38900
 407.77;18087.737;  466.520;43500.038; 0.38777
 408.37;18290.382;  484.641;43973.019; 0.38781
 408.96;18485.590;  491.806;44465.898; 0.38807
 409.55;18755.976;  504.476;44970.283; 0.38673
 410.14;18892.483;  481.626;45459.452; 0.38792
 410.73;19211.503;  490.299;45905.805; 0.38487
 411.32;19420.430;  492.855;46441.730; 0.38518
 411.91;19726.253;  505.687;47060.216; 0.38420
 412.50;19777.344;  480.732;47624.639; 0.38794
 413.09;19920.119;  484.505;48110.411; 0.38924
 413.68;20088.634;  482.467;48573.257; 0.38967
 414.27;20321.628;  487.472;48936.919; 0.38788
 414.86;20507.353;  462.470;49236.309; 0.38618
 415.45;20595.124;  452.555;49687.411; 0.38816
 416.04;20814.783;  462.743;50083.734; 0.38706
 416.63;20967.657;  468.551;50542.275; 0.38787
 417.22;21205.399;  461.867;50754.683; 0.38462
 417.81;21326.861;  462.159;51068.477; 0.38479
 418.40;21423.059;  476.694;51393.675; 0.38575
 418.99;21525.551;  477.832;51737.830; 0.38657
 419.58;21569.440;  462.218;51969.382; 0.38744
 420.17;21736.785;  452.952;52248.392; 0.38624
 420.76;21796.897;  458.593;52499.836; 0.38719
 421.35;21941.829;  472.988;53005.769; 0.38862
 421.94;21910.228;  474.287;53203.501; 0.39091
 422.53;22003.694;  469.601;53402.299; 0.39060
 423.12;22083.553;  471.552;53493.823; 0.38976
 423.71;22248.257;  463.366;53670.857; 0.38782
 424.30;22210.282;  471.573;53819.883; 0.38989
 424.89;22163.767;  477.611;53888.037; 0.39144
 425.48;22108.089;  477.854;53974.356; 0.39326
 426.07;22117.764;  465.438;53940.695; 0.39265
 426.66;22097.912;  460.097;54040.507; 0.39379
 427.25;21979.170;  453.014;53995.096; 0.39573
 427.84;21946.785;  450.549;53912.043; 0.39568
 428.43;21857.851;  452.848;53711.442; 0.39587
 429.02;21923.295;  457.772;53797.552; 0.39531
 429.61;21887.186;  448.720;53826.107; 0.39616
 430.20;21643.523;  425.820;53758.443; 0.40029
 430.79;21399.659;  437.001;53531.580; 0.40360
 431.38;21178.290;  442.471;53315.543; 0.40651
 431.97;21065.183;  451.391;53001.434; 0.40642
 432.55;20996.427;  445.807;52690.011; 0.40521
 433.14;20840.827;  441.412;52704.411; 0.40858
 433.73;20799.806;  432.971;52655.054; 0.40893
 434.32;20587.684;  424.624;52606.263; 0.41296
 434.91;20453.491;  423.161;52233.737; 0.41273
 435.50;20272.291;  418.064;51971.869; 0.41441
 436.09;20064.393;  418.432;51687.970; 0.41659
 436.68;19906.395;  422.559;51624.303; 0.41961
 437.27;19778.215;  439.214;51661.122; 0.42302
 437.86;19594.657;  433.576;51508.561; 0.42579
 438.45;19470.087;  436.794;51330.326; 0.42715
 439.04;19260.398;  419.148;51043.637; 0.42925
 439.62;19058.727;  412.025;51000.963; 0.43345
 440.21;18841.139;  413.441;50885.373; 0.43758
 440.80;18739.637;  430.263;51024.538; 0.44143
 441.39;18754.259;  449.560;51081.161; 0.44186
 441.98;18610.392;  447.874;51020.625; 0.44474
 442.57;18415.655;  436.530;50797.219; 0.44732
 443.16;18272.683;  425.660;50702.578; 0.44980
 443.75;18156.016;  431.481;50788.909; 0.45349
 444.33;18103.156;  435.018;50969.383; 0.45640
 444.92;17852.125;  440.355;50892.685; 0.46204
 445.51;17704.763;  417.614;50850.986; 0.46499
 446.10;17577.322;  410.612;51056.876; 0.46986
 446.69;17610.659;  404.712;51275.545; 0.47079
 447.28;17541.507;  420.929;51457.726; 0.47436
 447.87;17412.164;  412.657;51329.383; 0.47642
 448.45;17246.531;  413.036;51412.748; 0.48139
 449.04;17153.096;  390.874;51445.980; 0.48371
 449.63;17041.407;  386.972;51646.289; 0.48824
 450.22;16975.585;  381.501;51835.467; 0.49147
 450.81;16832.669;  386.090;52100.884; 0.49754
 451.40;16674.573;  391.666;52058.120; 0.50148
 451.98;16549.187;  398.229;52052.065; 0.50490
 452.57;16483.925;  403.856;52211.469; 0.50811
 453.16;16463.813;  401.626;52273.023; 0.50912
 453.75;16288.831;  391.994;52359.708; 0.51442
 454.34;16191.138;  388.814;52215.013; 0.51583
 454.93;16074.825;  395.232;52494.699; 0.52150
 455.51;15999.344;  391.805;52615.216; 0.52453
 456.10;15815.240;  402.670;52907.445; 0.53232
 456.69;15635.841;  396.116;53041.712; 0.53838
 457.28;15494.999;  403.304;53288.203; 0.54459
 457.87;15454.130;  395.902;53216.666; 0.54503
 458.45;15419.491;  396.108;53304.691; 0.54676
 459.04;15396.176;  388.965;53401.373; 0.54808
 459.63;15239.278;  395.666;53676.141; 0.55503
 460.22;15091.933;  396.420;53639.128; 0.55908
 460.80;14995.960;  400.600;53692.823; 0.56245
 461.39;14966.031;  392.483;53895.895; 0.56482
 461.98;15028.254;  393.792;54364.115; 0.56678
 462.57;14967.416;  398.874;54782.941; 0.57206
 463.16;14899.418;  397.668;55197.607; 0.57736
 463.74;14800.689;  387.726;55673.212; 0.58386
 464.33;14828.586;  376.102;56213.777; 0.58698
 464.92;14840.540;  370.427;56547.398; 0.58909
 465.51;14816.519;  357.831;56911.710; 0.59233
 466.09;14842.033;  358.204;57352.888; 0.59495
 466.68;14831.917;  361.518;57898.436; 0.59947
 467.27;14865.119;  372.331;58292.638; 0.60168
 467.86;14812.215;  368.243;58560.733; 0.60518
 468.44;14851.070;  363.094;58919.922; 0.60657
 469.03;14854.634;  361.882;59322.152; 0.60941
 469.62;14900.188;  367.807;59788.037; 0.61160
 470.20;14932.156;  365.300;60231.337; 0.61381
 470.79;14992.349;  374.762;60677.863; 0.61546
 471.38;14981.652;  358.816;61146.166; 0.61878
 471.97;15009.876;  359.020;61564.389; 0.62093
 472.55;14996.833;  350.111;61933.679; 0.62372
 473.14;15050.090;  362.234;62406.602; 0.62574
 473.73;15084.692;  355.473;62971.535; 0.62851
 474.31;15069.937;  347.428;63489.444; 0.63234
 474.90;15059.399;  350.797;63899.238; 0.63553
 475.49;15104.409;  352.737;64160.914; 0.63604
 476.07;15149.153;  357.870;64473.326; 0.63696
 476.66;15214.658;  347.892;64752.829; 0.63670
 477.25;15173.830;  340.581;65000.332; 0.63940
 477.84;15194.024;  352.761;65155.193; 0.64012
 478.42;15067.444;  344.733;65155.945; 0.64366
 479.01;15000.167;  344.681;65156.001; 0.64565
 479.60;14958.011;  330.210;65156.511; 0.64657
 480.18;14978.091;  334.265;65158.257; 0.64608
 480.77;14898.316;  342.135;65159.480; 0.64864
 481.35;14883.209;  347.900;65159.373; 0.64923
 481.94;14878.024;  344.738;65159.188; 0.64931
 482.53;14874.759;  335.059;65159.923; 0.64919
 483.11;14750.879;  332.000;65160.709; 0.65284
 483.70;14686.224;  318.067;65161.719; 0.65447
 484.29;14620.497;  316.585;65163.324; 0.65643
 484.87;14617.716;  306.461;65164.542; 0.65629
 485.46;14486.779;  315.710;65164.272; 0.66050
 486.05;14493.092;  319.958;65162.920; 0.66040
 486.63;14338.429;  321.237;65162.258; 0.66519
 487.22;14325.414;  317.302;65162.909; 0.66550
 487.81;14290.875;  323.288;65164.368; 0.66673
 488.39;14268.982;  331.856;65164.474; 0.66762
 488.98;14150.573;  337.207;65163.733; 0.67145
 489.56;13987.968;  317.228;65164.794; 0.67610
 490.15;13927.880;  310.772;65166.371; 0.67786
 490.74;13749.631;  302.771;65167.454; 0.68339
 491.32;13567.286;  305.937;65168.774; 0.68941
 491.91;13315.570;  316.111;64974.057; 0.69670
 492.49;13165.494;  317.823;64712.314; 0.70002
 493.08;13003.645;  332.939;64167.133; 0.70225
 493.67;12813.732;  325.500;63724.219; 0.70558
 494.25;12636.694;  343.920;63105.848; 0.70805
 494.84;12443.934;  335.724;62474.087; 0.71028
 495.42;12332.939;  338.386;61959.759; 0.71075
 496.01;12198.495;  319.873;61399.648; 0.71113
 496.59;12065.628;  310.443;60754.114; 0.71112
 497.18;11859.993;  311.106;60078.479; 0.71392
 497.77;11678.148;  311.733;59331.632; 0.71537
 498.35;11559.313;  326.966;58841.796; 0.71680
 498.94;11490.401;  324.499;58030.218; 0.71333
 499.52;11431.703;  324.914;57567.186; 0.71213
 500.11;11286.785;  311.275;56906.600; 0.71236
 500.69;11152.764;  304.601;56449.246; 0.71395
 501.28;11031.560;  315.149;55764.708; 0.71385
 501.86;10965.960;  317.653;55155.772; 0.71180
 502.45;10898.216;  338.264;54632.693; 0.71109
 503.03;10829.512;  328.939;54106.656; 0.70939
 503.62;10723.612;  339.385;53665.090; 0.71056
 504.20;10688.157;  326.215;53123.968; 0.70717
 504.79;10614.005;  326.766;52666.148; 0.70653
 505.37;10605.398;  326.582;52358.543; 0.70433
 505.96;10558.959;  332.269;51859.105; 0.70230
 506.55;10608.681;  327.706;51491.158; 0.69693
 507.13;10685.903;  315.837;51254.709; 0.69127
 507.72;10831.249;  312.954;51138.387; 0.68414
 508.30;10955.828;  319.265;50944.634; 0.67757
 508.89;11003.673;  316.460;50626.145; 0.67279
 509.47;11032.251;  308.593;50383.056; 0.66927
 510.05;11130.409;  311.037;50305.214; 0.66472
 510.64;11255.401;  312.992;50205.541; 0.65892
 511.22;11376.684;  326.961;50242.492; 0.65488
 511.81;11530.718;  323.186;50282.527; 0.64911
 512.39;11737.138;  329.747;50266.280; 0.64123
 512.98;11931.969;  310.647;50213.110; 0.63287
 513.56;12137.145;  306.947;50200.284; 0.62505
 514.15;12393.703;  297.484;50225.841; 0.61570
 514.73;12631.201;  293.306;50310.339; 0.60788
 515.32;12800.242;  298.909;50412.714; 0.60300
 515.90;12880.993;  306.909;50529.464; 0.60142
 516.49;13082.125;  321.223;50576.262; 0.59530
 517.07;13284.002;  323.415;50501.804; 0.58789
 517.66;13592.149;  325.663;50468.951; 0.57746
 518.24;13780.642;  330.491;50581.443; 0.57242
 518.82;13976.316;  322.791;50433.118; 0.56468
 519.41;14194.438;  321.449;50483.238; 0.55820
 519.99;14500.143;  304.901;50520.942; 0.54870
 520.58;14825.050;  313.039;50964.514; 0.54286
 521.16;15145.745;  316.114;51139.212; 0.53493
 521.75;15452.045;  315.579;51354.849; 0.52788
 522.33;15800.030;  314.722;51552.832; 0.51967
 522.91;16135.983;  303.280;51724.449; 0.51159
 523.50;16427.291;  304.661;51708.091; 0.50356
 524.08;16651.722;  292.957;51816.521; 0.49826
 524.67;16917.029;  296.699;52029.160; 0.49312
 525.25;17193.508;  294.898;52244.306; 0.48773
 525.83;17566.548;  300.195;52281.679; 0.47865
 526.42;17839.521;  299.604;52255.985; 0.47161
 527.00;18168.506;  297.414;52315.968; 0.46401
 527.59;18433.929;  293.742;52194.390; 0.45653
 528.17;18772.334;  296.702;52169.461; 0.44834
 528.75;19052.987;  314.407;52237.781; 0.44263
 529.34;19210.079;  317.963;52410.206; 0.44049
 529.92;19380.573;  322.096;52599.701; 0.43823
 530.50;19626.292;  308.099;52577.086; 0.43228
 531.09;20026.128;  310.277;52580.588; 0.42344
 531.67;20352.615;  319.699;52493.409; 0.41571
 532.25;20628.158;  331.224;52474.618; 0.40977
 532.84;20715.281;  319.265;52286.406; 0.40618
 533.42;20867.996;  303.579;52069.121; 0.40092
 534.00;20908.491;  296.379;51800.283; 0.39772
 534.59;21108.901;  306.923;51692.027; 0.39273
 535.17;21200.500;  307.396;51484.292; 0.38907
 535.75;21457.222;  311.833;51399.345; 0.38310
 536.34;21721.191;  327.170;51106.314; 0.37539
 536.92;21903.232;  323.362;50970.357; 0.37050
 537.50;21948.571;  320.767;50555.361; 0.36599
 538.09;21940.483;  304.234;50224.272; 0.36309
 538.67;22020.253;  307.957;49849.711; 0.35827
 539.25;22150.118;  292.004;49517.578; 0.35258
 539.84;22260.627;  298.382;49195.084; 0.34760
 540.42;22427.621;  287.620;48747.408; 0.34020
 541.00;22521.494;  304.712;48328.615; 0.33478
 541.59;22560.357;  293.453;47996.146; 0.33088
 542.17;22567.853;  303.713;47681.974; 0.32797
 542.75;22615.299;  301.687;47449.085; 0.32489
 543.33;22742.316;  321.928;47035.436; 0.31880
 543.92;22860.018;  322.791;46647.473; 0.31291
 544.50;22965.879;  319.637;46212.001; 0.30674
 545.08;23059.947;  303.653;45900.067; 0.30183
 545.67;23116.066;  304.594;45544.519; 0.29737
 546.25;23260.145;  306.855;45243.598; 0.29176
 546.83;23260.104;  305.919;44881.223; 0.28823
 547.41;23352.843;  307.185;44485.963; 0.28262
 548.00;23340.297;  304.048;44073.416; 0.27876
 548.58;23409.888;  293.554;43651.340; 0.27315
 549.16;23405.854;  273.252;43462.973; 0.27116
 549.74;23411.888;  276.221;43125.006; 0.26766
 550.33;23510.568;  287.338;42789.017; 0.26248
 550.91;23549.028;  287.502;42328.145; 0.25703
 551.49;23672.615;  275.114;42084.067; 0.25210
 552.07;23742.890;  281.527;41894.675; 0.24888
 552.66;23847.798;  296.715;41696.915; 0.24499
 553.24;23917.015;  301.874;41407.799; 0.24071
 553.82;23964.940;  287.046;41262.389; 0.23818
 554.40;24123.530;  287.502;41018.645; 0.23269
 554.98;24189.081;  286.839;40927.197; 0.23052
 555.57;24364.658;  295.511;40724.442; 0.22523
 556.15;24469.407;  295.794;40729.857; 0.22341
 556.73;24569.073;  289.872;40584.856; 0.22002
 557.31;24732.313;  280.087;40487.094; 0.21598
 557.89;24821.449;  267.680;40402.230; 0.21340
 558.48;25029.372;  270.725;40389.487; 0.20962
 559.06;25188.522;  269.279;40492.969; 0.20795
 559.64;25453.916;  288.172;40421.363; 0.20269
 560.22;25640.719;  308.276;40298.501; 0.19828
 560.80;25821.985;  311.749;40155.433; 0.19365
 561.39;25941.026;  300.174;40123.139; 0.19120
 561.97;26138.687;  304.256;40118.465; 0.18784
 562.55;26302.473;  305.864;40159.584; 0.18555
 563.13;26525.370;  307.652;40244.814; 0.18278
 563.71;26819.228;  295.320;40343.674; 0.17895
 564.29;27027.065;  296.315;40286.513; 0.17494
 564.88;27179.260;  280.495;40218.374; 0.17165
 565.46;27375.988;  277.260;40267.767; 0.16901
 566.04;27595.462;  269.464;40338.574; 0.16623
 566.62;27845.677;  292.162;40520.457; 0.16435
 567.20;27934.565;  292.265;40647.678; 0.16433
 567.78;28072.640;  300.170;40851.754; 0.16439
 568.36;28259.973;  300.837;41002.754; 0.16309
 568.94;28589.076;  296.460;41004.189; 0.15800
 569.53;28813.080;  295.816;41099.192; 0.15559
 570.11;29054.042;  283.902;41113.488; 0.15203
 570.69;29207.467;  278.869;41248.245; 0.15113
 571.27;29457.818;  279.854;41227.262; 0.14717
 571.85;29665.110;  279.584;41295.220; 0.14482
 572.43;29903.437;  299.078;41479.213; 0.14333
 573.01;30065.085;  288.199;41566.526; 0.14184
 573.59;30191.901;  284.931;41522.011; 0.13952
 574.17;30308.539;  270.419;41423.650; 0.13673
 574.76;30467.318;  278.826;41529.098; 0.13559
 575.34;30698.550;  274.920;41725.997; 0.13432
 575.92;30768.406;  271.771;41808.186; 0.13418
 576.50;30966.726;  265.398;41828.507; 0.13155
 577.08;31055.934;  261.206;41866.048; 0.13067
 577.66;31272.235;  250.776;41875.013; 0.12768
 578.24;31342.046;  252.747;41879.155; 0.12676
 578.82;31520.140;  257.942;41897.583; 0.12449
 579.40;31711.100;  266.978;41903.210; 0.12193
 579.98;31927.518;  273.567;41841.961; 0.11834
 580.56;31962.209;  281.852;41853.319; 0.11801
 581.14;32023.391;  291.659;41917.834; 0.11787
 581.72;32211.801;  280.280;42082.244; 0.11698
 582.30;32535.025;  273.151;42074.467; 0.11250
 582.88;32715.845;  274.650;42152.288; 0.11089
 583.46;32809.711;  282.363;42189.821; 0.11004
 584.04;32955.679;  282.956;42171.457; 0.10791
 584.62;33133.383;  265.125;42197.830; 0.10578
 585.21;33273.316;  267.265;42241.428; 0.10439
 585.79;33307.565;  273.754;42392.009; 0.10551
 586.37;33446.864;  277.118;42415.309; 0.10393
 586.95;33562.679;  275.522;42455.787; 0.10283
 587.53;33740.379;  269.979;42469.819; 0.10065
 588.11;33875.487;  278.442;42585.262; 0.10011
 588.69;33942.755;  282.733;42557.865; 0.09897
 589.27;34102.035;  283.424;42506.477; 0.09639
 589.85;34213.160;  276.026;42443.602; 0.09430
 590.43;34451.164;  271.715;42599.939; 0.09286
 591.01;34587.078;  278.076;42722.853; 0.09242
 591.59;34791.836;  288.299;42936.945; 0.09204
 592.16;34829.881;  287.924;42891.657; 0.09110
 592.74;34974.270;  291.617;42886.045; 0.08924
 593.32;34984.508;  293.193;42739.948; 0.08762
 593.90;35266.860;  297.895;42708.966; 0.08380
 594.48;35273.931;  288.777;42603.037; 0.08260
 595.06;35410.368;  285.245;42684.475; 0.08174
 595.64;35373.467;  272.769;42709.242; 0.08242
 596.22;35422.697;  276.890;42757.472; 0.08232
 596.80;35299.512;  268.138;42505.619; 0.08124
 597.38;35253.118;  264.245;42457.558; 0.08131
 597.96;35221.470;  262.869;42299.911; 0.08008
 598.54;35304.961;  268.057;42320.734; 0.07927
 599.12;35402.968;  272.769;42174.074; 0.07655
 599.70;35428.854;  272.156;42133.628; 0.07581
 600.28;35404.441;  269.178;41999.881; 0.07471
 600.86;35441.796;  273.568;41898.236; 0.07320
 601.44;35491.216;  279.130;41816.989; 0.07175
 602.02;35529.210;  273.135;41601.984; 0.06902
 602.59;35442.058;  269.019;41487.164; 0.06888
 603.17;35264.551;  254.435;41427.991; 0.07042
 603.75;35166.594;  264.600;41407.036; 0.07144
 604.33;35043.932;  268.544;41269.041; 0.07152
 604.91;35054.538;  272.574;41056.648; 0.06914
 605.49;35028.624;  271.546;40985.067; 0.06870
 606.07;35026.770;  254.900;40828.877; 0.06702
 606.65;34979.261;  260.422;40696.701; 0.06621
 607.23;34836.377;  264.441;40448.820; 0.06533
 607.80;34778.935;  277.156;40221.379; 0.06361
 608.38;34706.690;  277.256;40025.464; 0.06239
 608.96;34670.894;  285.786;39921.000; 0.06171
 609.54;34511.950;  288.246;39743.725; 0.06178
 610.12;34380.600;  283.928;39528.375; 0.06107
 610.70;34152.493;  273.259;39095.265; 0.05914
 611.28;33924.618;  259.195;38813.390; 0.05889
 611.85;33555.472;  265.841;38433.913; 0.05939
 612.43;33310.853;  260.695;38304.961; 0.06112
 613.01;33133.720;  263.202;38019.161; 0.06018
 613.59;33005.338;  249.299;37795.112; 0.05927
 614.17;32938.643;  240.914;37668.085; 0.05867
 614.75;32644.096;  222.778;37521.205; 0.06086
 615.32;32419.334;  209.277;37291.775; 0.06118
 615.90;32106.463;  219.080;36866.572; 0.06043
 616.48;31906.879;  232.952;36658.988; 0.06071
 617.06;31721.379;  255.157;36308.488; 0.05910
 617.64;31562.370;  246.140;36072.812; 0.05844
 618.22;31398.746;  241.049;35666.522; 0.05575
 618.79;31244.855;  228.178;35515.632; 0.05603
 619.37;31066.574;  227.104;35180.352; 0.05438
 619.95;30846.158;  231.387;34894.600; 0.05394
 620.53;30471.386;  218.869;34491.494; 0.05419
 621.11;30168.531;  206.529;34156.975; 0.05427
 621.68;30022.589;  201.116;33920.700; 0.05335
 622.26;30103.330;  202.843;33803.106; 0.05066
 622.84;29913.600;  212.594;33643.042; 0.05137
 623.42;29708.963;  214.208;33340.072; 0.05042
 623.99;29294.048;  232.130;33128.823; 0.05383
 624.57;29215.769;  239.695;32874.211; 0.05164
 625.15;29128.840;  249.244;32723.283; 0.05095
 625.73;29094.338;  235.066;32483.448; 0.04822
 626.30;28948.345;  228.444;32290.122; 0.04780
 626.88;28696.154;  228.031;32032.596; 0.04813
 627.46;28457.344;  230.061;31766.787; 0.04815
 628.04;28293.455;  242.419;31549.234; 0.04769
 628.61;28127.323;  241.899;31249.103; 0.04609
 629.19;27875.623;  244.829;31015.066; 0.04674
 629.77;27538.982;  231.831;30736.758; 0.04809
 630.35;27335.424;  234.217;30562.869; 0.04886
 630.92;27168.475;  232.092;30375.921; 0.04886
 631.50;27055.032;  220.757;30199.145; 0.04812
 632.08;26849.899;  206.521;29949.680; 0.04780
 632.66;26780.679;  196.801;29744.460; 0.04590
 633.23;26574.650;  216.776;29426.430; 0.04462
 633.81;26381.573;  225.566;29138.020; 0.04351
 634.39;26181.308;  220.298;28844.754; 0.04242
 634.96;26044.012;  221.956;28624.791; 0.04137
 635.54;25890.116;  216.680;28606.896; 0.04368
 636.12;25609.526;  214.735;28334.976; 0.04427
 636.69;25341.142;  204.526;28222.591; 0.04713
 637.27;25137.721;  199.403;27913.834; 0.04584
 637.85;25011.616;  217.219;27696.062; 0.04464
 638.42;24884.876;  206.286;27392.989; 0.04204
 639.00;24719.676;  223.367;27259.457; 0.04284
 639.58;24555.163;  209.789;26981.612; 0.04126
 640.15;24386.332;  222.891;26790.445; 0.04119
 640.73;24243.780;  204.119;26492.226; 0.03883
 641.31;24208.561;  216.013;26471.006; 0.03914
 641.88;24007.342;  210.908;26285.787; 0.03971
 642.46;23799.122;  226.803;26132.901; 0.04100
 643.04;23531.570;  214.697;25934.349; 0.04259
 643.61;23457.684;  223.925;25817.463; 0.04201
 644.19;23334.132;  209.153;25659.577; 0.04161
 644.77;23216.246;  224.048;25468.358; 0.04058
 645.34;23175.027;  211.943;25293.805; 0.03833
 645.92;23020.474;  214.504;25070.586; 0.03738
 646.49;22930.255;  218.399;24938.033; 0.03679
 647.07;22673.036;  220.293;24745.814; 0.03835
 647.65;22554.150;  224.188;24564.928; 0.03745
 648.22;22380.931;  218.082;24391.042; 0.03770
 648.80;22346.379;  227.310;24368.156; 0.03799
 649.37;22348.160;  227.872;24339.937; 0.03744
 649.95;22195.607;  227.433;24242.051; 0.03868
 650.53;22051.055;  209.328;24121.165; 0.03933
 651.10;21844.502;  214.222;24054.279; 0.04225
 651.68;21791.950;  211.450;24020.060; 0.04267
 652.25;21690.064;  221.012;23899.174; 0.04254
 652.83;21661.178;  211.573;23700.955; 0.03945
 653.41;21628.292;  208.468;23524.069; 0.03683
 653.98;21647.073;  212.362;23340.850; 0.03303
 654.56;21545.521;  211.590;23307.630; 0.03447
 655.13;21490.635;  208.818;23285.744; 0.03517
 655.71;21276.416;  207.379;23284.525; 0.03954
 656.28;21199.863;  194.941;23185.639; 0.03923
 656.86;21137.311;  188.169;22962.753; 0.03628
 657.43;21119.758;  190.397;22872.868; 0.03493
 658.01;21123.206;  212.958;22793.315; 0.03337
 658.58;21084.987;  207.519;22876.096; 0.03575
 659.16;21047.434;  211.747;22798.876; 0.03505
 659.74;20940.882;  196.309;22777.324; 0.03684
 660.31;20889.996;  204.203;22714.438; 0.03671
 660.89;20833.777;  198.098;22687.885; 0.03737
 661.46;20723.224;  206.659;22545.999; 0.03697
 662.04;20700.672;  208.554;22516.780; 0.03688
 662.61;20812.119;  207.448;22500.894; 0.03421
 663.19;20904.900;  206.676;22626.342; 0.03470
 663.76;20890.681;  209.571;22600.456; 0.03450
 664.34;20842.795;  211.132;22526.237; 0.03406
 664.91;20930.910;  214.027;22413.684; 0.03002
 665.49;21064.690;  216.922;22441.798; 0.02778
 666.06;21099.805;  213.150;22513.246; 0.02844
 666.64;21087.252;  212.044;22555.693; 0.02952
 667.21;21011.366;  216.606;22500.140; 0.03003
 667.79;20975.481;  204.167;22400.588; 0.02882
 668.36;20945.261;  201.395;22402.702; 0.02949
 668.93;20901.709;  202.290;22421.149; 0.03076
 669.51;20815.490;  198.184;22426.263; 0.03267
 670.08;20838.271;  192.412;22387.044; 0.03142
 670.66;20853.052;  189.307;22273.825; 0.02888
 671.23;20963.499;  213.201;22361.606; 0.02832
 671.81;20949.613;  219.763;22403.720; 0.02944
 672.38;20945.061;  224.324;22501.167; 0.03145
 672.96;20911.842;  213.552;22510.281; 0.03231
 673.53;20941.956;  213.113;22482.395; 0.03113
 674.10;20940.737;  213.008;22524.843; 0.03198
 674.68;20957.184;  228.236;22505.290; 0.03128
 675.25;20906.965;  221.131;22417.404; 0.03061
 675.83;20859.746;  215.692;22370.185; 0.03067
 676.40;20884.860;  203.253;22300.299; 0.02875
 676.98;20868.308;  209.148;22323.413; 0.02956
 677.55;20847.755;  210.043;22281.527; 0.02917
 678.12;20775.203;  223.937;22260.975; 0.03031
 678.70;20771.650;  221.832;22236.089; 0.02990
 679.27;20695.098;  229.060;22163.870; 0.03010
 679.85;20702.879;  216.621;22124.984; 0.02915
 680.42;20697.326;  216.516;22133.431; 0.02943
 680.99;20730.441;  192.744;22099.212; 0.02802
 681.57;20643.555;  198.305;22028.659; 0.02847
 682.14;20603.336;  205.866;21848.773; 0.02574
 682.71;20465.783;  210.761;21795.554; 0.02762
 683.29;20431.564;  200.656;21706.668; 0.02654
 683.86;20257.012;  185.884;21546.116; 0.02703
 684.43;20205.792;  198.112;21362.230; 0.02440
 685.01;20113.240;  197.006;21197.011; 0.02301
 685.58;20115.021;  206.234;21272.458; 0.02454
 686.16;20171.135;  206.462;21269.239; 0.02325
 686.73;20159.916;  215.023;21397.686; 0.02615
 687.30;20121.030;  207.585;21388.467; 0.02680
 687.88;20034.811;  217.479;21321.914; 0.02733
 688.45;19922.259;  210.707;21118.362; 0.02558
 689.02;19839.706;  213.602;21022.142; 0.02541
 689.60;19758.154;  190.497;20889.257; 0.02441
 690.17;19743.601;  199.391;20926.704; 0.02552
 690.74;19672.715;  189.619;20805.485; 0.02454
 691.31;19708.496;  204.181;20824.932; 0.02417
 691.89;19617.944;  191.742;20754.713; 0.02470
 692.46;19585.725;  212.637;20700.494; 0.02430
 693.03;19487.172;  229.198;20611.941; 0.02465
 693.61;19448.953;  234.759;20426.722; 0.02156
 694.18;19389.734;  237.320;20424.503; 0.02285
 694.75;19318.515;  206.882;20414.950; 0.02423
 695.32;19300.629;  208.110;20458.064; 0.02556
 695.90;19251.410;  203.004;20312.512; 0.02354
 696.47;19201.191;  203.899;20210.626; 0.02248
 697.04;19162.972;  214.460;20060.073; 0.02009
 697.62;19064.086;  213.355;20039.187; 0.02190
 698.19;18947.867;  229.250;19951.301; 0.02268
 698.76;18833.981;  211.144;19960.082; 0.02550
 699.33;18792.762;  210.706;19883.196; 0.02477
 699.91;18735.543;  196.600;19795.977; 0.02416
 700.48;18693.323;  206.162;19674.091; 0.02245
 701.05;18616.104;  208.056;19645.538; 0.02363
 701.62;18528.552;  232.951;19536.652; 0.02329
 702.20;18408.666;  235.179;19463.767; 0.02451
 702.77;18277.447;  232.073;19314.881; 0.02428
 703.34;18247.228;  217.301;19303.995; 0.02474
 703.91;18146.675;  214.196;19161.775; 0.02391
 704.48;18169.456;  220.091;19054.223; 0.02090
 705.06;18108.904;  212.652;18964.004; 0.02027
 705.63;18141.351;  221.213;18940.118; 0.01894
 706.20;18101.799;  214.441;18934.565; 0.01976
 706.77;18029.580;  221.336;18864.679; 0.01990
 707.34;17918.361;  215.564;18821.793; 0.02162
 707.92;17793.475;  205.792;18710.907; 0.02208
 708.49;17694.256;  193.353;18575.022; 0.02132
 709.06;17644.036;  193.248;18466.136; 0.01999
 709.63;17668.484;  194.476;18431.916; 0.01857
 710.20;17607.598;  191.037;18446.697; 0.02044
 710.77;17599.712;  187.932;18338.145; 0.01804
 711.35;17504.827;  185.826;18305.592; 0.01963
 711.92;17621.941;  205.721;18271.706; 0.01591
 712.49;17606.388;  207.616;18372.487; 0.01871
 713.06;17660.836;  215.844;18405.934; 0.01816
 713.63;17654.283;  209.405;18498.382; 0.02052
 714.20;17732.731;  212.300;18556.829; 0.01996
 714.78;17745.845;  209.528;18487.277; 0.01798
 715.35;17719.959;  205.756;18407.724; 0.01673
 715.92;17646.074;  207.317;18351.838; 0.01723
 716.49;17612.188;  222.545;18343.285; 0.01789
 717.06;17591.635;  226.106;18273.400; 0.01672
 717.63;17528.083;  217.334;18198.847; 0.01651
 718.20;17477.864;  210.895;18175.294; 0.01720
 718.77;17362.311;  224.790;18170.075; 0.02000
 719.35;17302.092;  226.351;18153.189; 0.02112
 719.92;17255.206;  211.913;18038.303; 0.01951
 720.49;17202.654;  197.474;17879.084; 0.01694
 721.06;17123.101;  177.369;17774.532; 0.01638
 721.63;17114.882;  190.930;17799.979; 0.01723
 722.20;17120.996;  195.825;17861.426; 0.01860
 722.77;17151.444;  203.386;17825.540; 0.01694
 723.34;17141.892;  196.947;17821.321; 0.01707
 723.91;17074.006;  205.509;17813.102; 0.01862
 724.48;17016.787;  222.070;17777.883; 0.01925
 725.05;16911.234;  212.964;17617.997; 0.01800
 725.62;16925.348;  195.192;17490.778; 0.01444
 726.20;16970.463;  186.754;17461.892; 0.01253
 726.77;16914.577;  192.982;17446.339; 0.01360
 727.34;16898.024;  199.210;17412.787; 0.01319
 727.91;16856.138;  209.104;17361.567; 0.01299
 728.48;16909.253;  214.999;17354.015; 0.01142
 729.05;16907.034;  215.560;17353.795; 0.01147
 729.62;16880.481;  192.788;17320.910; 0.01131
 730.19;16870.262;  185.683;17297.024; 0.01097
 730.76;16866.043;  188.578;17324.138; 0.01177
 731.33;16847.157;  211.472;17306.252; 0.01182
 731.90;16736.605;  215.034;17274.033; 0.01390
 732.47;16718.052;  206.261;17242.147; 0.01357
 733.04;16679.833;  191.156;17245.594; 0.01465
 733.61;16647.947;  168.051;17256.042; 0.01574
 734.18;16547.395;  173.945;17191.156; 0.01675
 734.75;16383.509;  184.507;17077.270; 0.01821
 735.32;16336.956;  211.401;16955.384; 0.01634
 735.89;16316.404;  203.963;16851.831; 0.01420
 736.46;16382.518;  212.191;16734.945; 0.00936
 737.03;16329.632;  203.085;16674.393; 0.00919
 737.60;16209.080;  203.647;16580.840; 0.00997
 738.17;16051.194;  173.208;16558.621; 0.01366
 738.74;16040.975;  184.103;16523.735; 0.01302
 739.31;15890.756;  185.331;16430.849; 0.01468
 739.88;15842.870;  195.225;16300.630; 0.01252
 740.45;15751.318;  176.120;16234.411; 0.01327
 741.02;15831.765;  174.348;16293.858; 0.01263
 741.59;15866.879;  171.909;16337.305; 0.01283
 742.15;15915.660;  177.804;16325.753; 0.01117
 742.72;15881.108;  185.365;16376.867; 0.01351
 743.29;15885.222;  187.593;16351.648; 0.01272
 743.86;15839.669;  195.154;16298.095; 0.01254
 744.43;15798.117;  197.049;16220.543; 0.01160
 745.00;15855.898;  201.277;16240.323; 0.01054
 745.57;15757.345;  209.172;16261.771; 0.01387
 746.14;15821.460;  201.733;16198.552; 0.01036
 746.71;15686.240;  208.294;16179.666; 0.01363
 747.28;15761.355;  196.522;16170.446; 0.01127
 747.85;15708.136;  172.417;16124.227; 0.01148
 748.42;15689.583;  173.645;16103.675; 0.01144
 748.98;15607.697;  177.206;16075.455; 0.01297
 749.55;15555.478;  197.767;16011.569; 0.01271
 750.12;15531.592;  197.662;16015.683; 0.01350
 750.69;15571.707;  204.890;15955.131; 0.01070
 751.26;15575.154;  216.118;15910.245; 0.00937
 751.83;15572.935;  206.013;15821.026; 0.00696
 752.40;15501.716;  204.907;15769.807; 0.00755
 752.97;15493.163;  192.802;15780.587; 0.00808
 753.53;15433.944;  195.697;15773.035; 0.00956
 754.10;15327.725;  187.925;15706.815; 0.01074
 754.67;15271.506;  185.486;15666.263; 0.01122
 755.24;15256.620;  192.714;15616.044; 0.01024
 755.81;15276.401;  200.608;15583.491; 0.00876
 756.38;15224.849;  223.503;15510.272; 0.00819
 756.94;15163.963;  215.064;15482.386; 0.00915
 757.51;15049.077;  204.292;15502.833; 0.01308
 758.08;14920.191;  196.520;15545.281; 0.01806
 758.65;14810.639;  213.748;15443.728; 0.01844
 759.22;14805.086;  220.643;15351.176; 0.01596
 759.79;14712.867;  205.538;15180.623; 0.01378
 760.35;14595.648;  191.432;15130.404; 0.01583
 760.92;14435.095;  201.994;14987.518; 0.01654
 761.49;14374.876;  208.555;14849.965; 0.01433
 762.06;14362.657;  211.783;14641.079; 0.00846
 762.63;14306.771;  201.011;14500.527; 0.00592
 763.19;14263.552;  203.239;14469.641; 0.00632
 763.76;14126.000;  215.133;14423.422; 0.00919
 764.33;13999.781;  219.695;14294.202; 0.00918
 764.90;13853.895;  218.589;14107.650; 0.00801
 765.46;13692.676;  197.817;13914.097; 0.00707
 766.03;13509.123;  196.045;13749.878; 0.00778
 766.60;13386.237;  197.940;13624.992; 0.00779
 767.17;13227.352;  205.501;13465.773; 0.00788
 767.73;13111.133;  207.063;13413.220; 0.01005
 768.30;12849.913;  206.624;13205.001; 0.01203
 768.87;12699.361;  215.185;13045.782; 0.01189
 769.44;12595.475;  213.413;12836.229; 0.00836
 770.00;12434.923;  215.975;12686.677; 0.00886
 770.57;12210.370;  216.536;12525.791; 0.01127
 771.14;11943.818;  213.430;12350.238; 0.01479
 771.71;11795.265;  198.325;12122.686; 0.01209
 772.27;11624.713;  206.220;11935.800; 0.01167
 772.84;11469.827;  209.448;11715.914; 0.00939
 773.41;11330.275;  213.676;11595.695; 0.01025
 773.97;11219.055;  205.904;11440.809; 0.00866
 774.54;11088.170;  213.798;11314.923; 0.00896
 775.11;10899.617;  232.360;11227.370; 0.01314
 775.67;10753.398;  228.588;11074.818; 0.01306
 776.24;10578.179;  222.482;10902.265; 0.01338
 776.81;10421.293;  220.377;10665.712; 0.01028
 777.38;10348.074;  208.272;10484.160; 0.00579
 777.94;10241.188;  214.166;10350.941; 0.00473
 778.51;10145.969;  199.728;10214.721; 0.00299
 779.08;10019.750;  210.622;10137.835; 0.00520
 779.64; 9927.531;  201.517;10058.283; 0.00580
 780.21; 9844.978;  202.745; 9970.064; 0.00560
 780.78; 9713.426;  211.639; 9870.178; 0.00711
 781.34; 9637.873;  212.534; 9787.625; 0.00685
 781.91; 9580.988;  225.762; 9703.406; 0.00565
 782.47; 9519.102;  227.990; 9633.520; 0.00532
 783.04; 9473.216;  238.551; 9482.634; 0.00044
 783.61; 9391.997;  245.779; 9385.415;-0.00031
 784.17; 9306.778;  246.674; 9320.196; 0.00064
 784.74; 9224.892;  236.569; 9240.310; 0.00074
 785.31; 9145.339;  244.797; 9256.090; 0.00537
 785.87; 9096.454;  248.691; 9137.538; 0.00201
 786.44; 9046.568;  252.252; 9126.319; 0.00392
 787.00; 8988.682;  239.480; 9065.766; 0.00381
 787.57; 8965.796;  222.375; 9005.880; 0.00199
 788.14; 8868.910;  242.936; 8941.661; 0.00365
 788.70; 8820.691;  252.831; 8828.442; 0.00039
 789.27; 8769.806;  261.392; 8880.222; 0.00560
 789.83; 8750.253;  247.620; 8836.003; 0.00436
 790.40; 8723.367;  230.182; 8838.117; 0.00583
 790.96; 8678.481;  235.076; 8799.898; 0.00620
 791.53; 8605.596;  229.304; 8766.679; 0.00827
 792.10; 8603.710;  224.866; 8777.126; 0.00890
 792.66; 8524.491;  219.094; 8720.574; 0.01013
 793.23; 8582.605;  214.988; 8733.688; 0.00777
 793.79; 8536.053;  216.216; 8675.468; 0.00722
 794.36; 8537.167;  210.777; 8660.249; 0.00637
 794.92; 8468.948;  219.339; 8606.363; 0.00717
 795.49; 8503.395;  232.233; 8532.811; 0.00154
 796.05; 8478.509;  243.461; 8505.258; 0.00141
 796.62; 8472.624;  248.023; 8527.372; 0.00288
 797.19; 8376.738;  237.917; 8507.820; 0.00694
 797.75; 8351.852;  226.145; 8453.600; 0.00540
 798.32; 8281.633;  218.373; 8393.714; 0.00600
 798.88; 8255.080;  222.601; 8383.829; 0.00691
 799.45; 8291.528;  224.829; 8436.276; 0.00772
 800.01; 8460.975;  220.391; 8517.723; 0.00298
 800.58; 8686.090;  215.952; 8677.504;-0.00044
 801.14; 8915.204;  222.513; 8916.952; 0.00009
 801.71; 9143.985;  218.074; 9117.399;-0.00130
 802.27; 9355.432;  206.969; 9310.180;-0.00215
 802.84; 9604.213;  188.864; 9480.294;-0.00575
 803.40; 9809.661;  179.758; 9723.075;-0.00392
 803.96;10074.441;  198.986;10006.189;-0.00301
 804.53;10355.556;  210.548;10273.303;-0.00354
 805.09;10631.337;  208.442;10576.417;-0.00229
 805.66;10947.784;  200.670;10926.198;-0.00087
 806.22;11268.565;  172.898;11264.978;-0.00014
 806.79;11641.012;  185.793;11622.426;-0.00071
 807.35;11912.793;  182.354;11886.873;-0.00096
 807.92;12211.908;  214.582;12161.654;-0.00182
 808.48;12496.022;  221.810;12436.768;-0.00210
 809.05;12880.469;  217.705;12708.882;-0.00593
 809.61;13196.250;  213.933;13054.330;-0.00477
 810.17;13545.031;  218.827;13355.110;-0.00623
 810.74;13852.812;  231.055;13671.891;-0.00581
 811.30;14126.259;  226.617;13899.672;-0.00714
 811.87;14503.040;  214.511;14212.453;-0.00892
 812.43;14786.821;  214.406;14571.233;-0.00647
 812.99;15150.602;  216.967;14881.014;-0.00791
 813.56;15486.716;  221.862;15191.462;-0.00848
 814.12;15868.830;  221.090;15523.909;-0.00968
 814.69;16197.945;  216.318;15866.356;-0.00911
 815.25;16436.392;  210.213;16143.804;-0.00790
 815.81;16678.506;  200.774;16302.251;-0.01003
 816.38;17055.954;  196.335;16642.699;-0.01078
 816.94;17289.068;  193.897;16882.479;-0.01045
 817.51;17568.182;  192.791;17283.594;-0.00717
 818.07;17724.630;  201.019;17504.374;-0.00549
 818.63;17969.077;  202.247;17804.155;-0.00405
 819.20;18189.192;  201.808;18033.936;-0.00376
 819.76;18401.306;  209.370;18216.050;-0.00445
 820.32;18671.753;  216.598;18394.831;-0.00657
 820.89;18844.868;  218.159;18583.278;-0.00614
 821.45;19020.982;  193.387;18775.726;-0.00569
 822.01;19105.096;  176.615;18965.173;-0.00322
 822.58;19172.543;  180.843;19065.620;-0.00245
 823.14;19271.324;  194.404;19233.068;-0.00087
 823.70;19401.772;  202.299;19352.182;-0.00112
 824.27;19497.886;  193.194;19462.963;-0.00079
 824.83;19560.000;  215.421;19467.743;-0.00208
 825.39;19470.448;  215.649;19374.524;-0.00217
 825.95;19448.562;  221.211;19316.972;-0.00298
 826.52;19295.676;  191.105;19274.752;-0.00048
 827.08;19065.790;  189.000;19152.200; 0.00198
 827.64;18838.238;  175.895;18949.314; 0.00258
 828.21;18539.685;  175.123;18660.095; 0.00284
 828.77;18358.133;  181.351;18397.542; 0.00094
 829.33;17992.247;  183.579;18029.323; 0.00090
 829.89;17720.028;  181.807;17638.104;-0.00203
 830.46;17347.142;  185.701;17297.218;-0.00127
 831.02;17049.923;  190.596;16895.332;-0.00400
 831.58;16597.704;  201.157;16540.779;-0.00151
 832.15;16112.152;  185.052;16128.893; 0.00046
 832.71;15593.599;  188.280;15811.341; 0.00610
 833.27;15167.380;  178.841;15353.455; 0.00536
 833.83;14756.827;  169.736;14940.569; 0.00544
 834.39;14322.608;  164.297;14394.016; 0.00218
 834.96;13857.723;  162.192;13925.464; 0.00214
 835.52;13493.837;  187.086;13474.578;-0.00063
 836.08;13094.284;  188.981;13047.025;-0.00159
 836.64;12661.732;  194.876;12619.473;-0.00147
 837.21;12185.179;  198.770;12148.920;-0.00132
 837.77;11812.627;  198.332;11759.367;-0.00200
 838.33;11386.741;  206.893;11447.148; 0.00234
 838.89;10968.522;  203.121;11001.596; 0.00133
 839.45;10474.970;  205.349;10589.710; 0.00483
 840.02;10090.750;  209.910;10134.490; 0.00192
 840.58; 9715.198;  201.805; 9836.938; 0.00552
 841.14; 9318.979;  224.699; 9457.052; 0.00654
 841.70; 8928.760;  220.594; 9049.833; 0.00600
 842.26; 8500.541;  218.155; 8613.280; 0.00587
 842.82; 8161.988;  209.050; 8233.061; 0.00386
 843.39; 7762.769;  200.278; 7802.175; 0.00226
 843.95; 7430.216;  213.839; 7446.956; 0.00101
 844.51; 7080.997;  213.734; 7076.737;-0.00027
 845.07; 6745.112;  223.295; 6751.184; 0.00040
 845.63; 6469.226;  228.523; 6447.965;-0.00148
 846.19; 6202.340;  213.418; 6205.745; 0.00025
 846.75; 6031.454;  212.646; 6042.860; 0.00085
 847.32; 5838.902;  191.874; 5828.307;-0.00082
 847.88; 5655.016;  198.435; 5647.088;-0.00063
 848.44; 5510.463;  182.996; 5418.202;-0.00759
 849.00; 5288.911;  188.224; 5206.649;-0.00706
 849.56; 5184.358;  183.119; 5035.763;-0.01310
 850.12; 5019.473;  176.680; 4913.211;-0.00964
 850.68; 4954.254;  181.908; 4877.325;-0.00706
 851.24; 4874.034;  184.136; 4806.439;-0.00631
 851.80; 4868.482;  199.364; 4790.220;-0.00734
 852.37; 4824.929;  196.592; 4731.334;-0.00887
 852.93; 4773.710;  204.820; 4729.448;-0.00423
 853.49; 4702.491;  212.715; 4650.895;-0.00502
 854.05; 4671.939;  223.943; 4597.676;-0.00731
 854.61; 4628.053;  224.171; 4520.790;-0.01071
 855.17; 4628.500;  234.066; 4501.904;-0.01270
 855.73; 4590.948;  222.627; 4484.352;-0.01073
 856.29; 4610.729;  213.855; 4475.132;-0.01360
 856.85; 4608.176;  192.749; 4517.913;-0.00897
 857.41; 4672.957;  203.644; 4600.027;-0.00715
 857.97; 4708.405;  205.205; 4760.141; 0.00496
 858.53; 4836.852;  207.433; 4902.255; 0.00609
 859.09; 5071.300;  192.328; 5028.370;-0.00384
 859.65; 5358.747;  184.889; 5166.484;-0.01645
 860.21; 5589.195;  182.451; 5403.598;-0.01517
 860.77; 5816.976;  179.679; 5685.045;-0.01028
 861.33; 6120.757;  189.573; 6014.826;-0.00783
 861.89; 6477.538;  205.135; 6331.273;-0.01025
 862.45; 6837.985;  215.363; 6656.387;-0.01208
 863.01; 7151.099;  205.924; 6960.168;-0.01211
 863.57; 7475.547;  191.152; 7240.949;-0.01422
 864.13; 7822.328;  180.713; 7598.730;-0.01290
 864.69; 8193.442;  188.608; 7928.510;-0.01462
 865.25; 8558.556;  208.502; 8274.958;-0.01501
 865.81; 8858.337;  215.730; 8598.739;-0.01324
 866.37; 9200.785;  213.625; 8883.853;-0.01559
 866.93; 9532.232;  200.853; 9198.967;-0.01579
 867.49; 9903.346;  216.081; 9536.081;-0.01679
 868.05;10129.127;  210.642; 9849.195;-0.01243
 868.61;10441.575;  206.870;10116.309;-0.01403
 869.17;10740.689;  185.765;10306.090;-0.01826
 869.73;11101.136;  202.660;10652.537;-0.01825
 870.29;11413.584;  209.554;10985.985;-0.01690
 870.85;11742.031;  212.115;11316.099;-0.01635
 871.41;12106.479;  192.010;11700.213;-0.01507
 871.97;12447.927;  179.571;12032.994;-0.01494
 872.53;12844.041;  184.799;12414.108;-0.01501
 873.09;13234.155;  192.361;12748.222;-0.01649
 873.65;13650.602;  202.922;13125.336;-0.01730
 874.20;13976.383;  204.150;13530.783;-0.01428
 874.76;14363.050;  206.483;13844.450;-0.01621
 875.32;14637.050;  199.150;14344.450;-0.00889
 875.88;15055.383;  204.817;14722.117;-0.00986
 876.44;15396.383;  218.150;15059.450;-0.00975
 877.00;15840.383;  218.150;15358.117;-0.01362
 877.56;16180.383;  215.483;15696.450;-0.01337
 878.12;16571.383;  204.483;16104.450;-0.01257
 878.68;16902.050;  211.817;16344.450;-0.01476
 879.23;17118.383;  207.150;16637.783;-0.01252
 879.79;17306.383;  220.483;16875.783;-0.01109
 880.35;17499.717;  205.150;17127.117;-0.00946
 880.91;17699.383;  192.150;17367.783;-0.00830
 881.47;18010.717;  175.817;17611.783;-0.00982
 882.03;18314.050;  191.483;17929.783;-0.00931
 882.59;18636.050;  204.150;18199.450;-0.01041
 883.14;18775.383;  217.150;18423.117;-0.00832
 883.70;18890.717;  220.150;18492.117;-0.00937
 884.26;18979.050;  217.483;18606.117;-0.00872
 884.82;19121.383;  200.150;18627.783;-0.01148
 885.38;19141.717;  184.483;18693.783;-0.01038
 885.94;19147.383;  186.817;18692.783;-0.01054
 886.49;19040.383;  200.150;18759.783;-0.00652
 887.05;19010.383;  192.817;18819.450;-0.00443
 887.61;18925.383;  182.817;18766.450;-0.00370
 888.17;18884.050;  175.817;18655.450;-0.00534
 888.73;18837.717;  189.483;18492.450;-0.00812
 889.28;18709.050;  190.150;18251.117;-0.01087
 889.84;18526.717;  191.817;18020.450;-0.01216
 890.40;18333.383;  194.817;17792.450;-0.01315
 890.96;18177.383;  199.483;17628.450;-0.01347
 891.51;17971.717;  189.483;17470.117;-0.01243
 892.07;17712.717;  183.817;17244.117;-0.01177
 892.63;17494.050;  190.483;17036.783;-0.01163
 893.19;17367.383;  200.817;16880.117;-0.01251
 893.74;17265.383;  215.150;16772.783;-0.01273
 894.30;17034.050;  206.150;16671.450;-0.00946
 894.86;16912.383;  185.150;16510.450;-0.01056
 895.42;16740.383;  176.483;16397.450;-0.00909
 895.97;16717.717;  175.150;16362.450;-0.00943
 896.53;16562.050;  203.817;16299.450;-0.00703
 897.09;16583.050;  212.817;16258.117;-0.00871
 897.65;16567.383;  225.483;16079.783;-0.01316
 898.20;16474.717;  228.483;15994.117;-0.01304
 898.76;16364.717;  215.150;15888.117;-0.01301
 899.32;16285.717;  215.483;15824.450;-0.01265
 899.87;16278.383;  206.483;15765.117;-0.01410
 900.43;16200.050;  206.150;15631.783;-0.01571
 900.99;16122.383;  194.483;15508.450;-0.01707
 901.54;15870.050;  181.150;15319.450;-0.01552
 902.10;15677.717;  193.150;15133.117;-0.01555
 902.66;15416.050;  208.483;14918.117;-0.01446
 903.21;15260.717;  221.817;14754.117;-0.01488
 903.77;14991.383;  229.483;14588.450;-0.01202
 904.33;14835.717;  209.483;14443.783;-0.01180
 904.88;14678.383;  198.150;14329.783;-0.01058
 905.44;14608.050;  177.150;14293.450;-0.00957
 906.00;14577.717;  191.150;14324.117;-0.00772
 906.55;14571.717;  207.483;14294.117;-0.00848
 907.11;14394.717;  214.150;14239.117;-0.00479
 907.67;14232.717;  205.817;14016.117;-0.00676
 908.22;14117.383;  196.150;13855.783;-0.00824
 908.78;14122.717;  187.817;13715.783;-0.01287
 909.33;14003.717;  195.483;13616.783;-0.01234
 909.89;13917.383;  192.150;13488.783;-0.01378
 910.45;13808.383;  201.150;13406.783;-0.01301
 911.00;13634.717;  191.483;13362.117;-0.00890
 911.56;13482.717;  203.817;13272.117;-0.00694
 912.12;13317.383;  208.483;13101.117;-0.00722
 912.67;13208.383;  221.483;12951.117;-0.00869
 913.23;13077.050;  194.150;12807.450;-0.00918
 913.78;12968.717;  178.483;12651.783;-0.01090
 914.34;12884.717;  201.483;12642.117;-0.00839
 914.89;12822.717;  216.483;12543.117;-0.00974
 915.45;12801.717;  227.150;12558.117;-0.00850
 916.01;12778.050;  195.483;12386.117;-0.01374
 916.56;12654.050;  201.483;12282.450;-0.01316
 917.12;12506.717;  196.817;12063.117;-0.01594
 917.67;12454.383;  195.483;11981.117;-0.01710
 918.23;12383.050;  182.817;11944.450;-0.01590
 918.78;12258.383;  186.483;11927.117;-0.01208
 919.34;12023.050;  188.817;11843.783;-0.00663
 919.89;11908.050;  199.150;11694.117;-0.00801
 920.45;11720.050;  185.817;11531.783;-0.00715
 921.00;11601.050;  168.817;11330.783;-0.01039
 921.56;11421.383;  176.150;11296.783;-0.00484
 922.11;11309.050;  175.150;11154.450;-0.00607
 922.67;11183.383;  202.483;11048.450;-0.00537
 923.22;11032.050;  191.150;10815.450;-0.00877
 923.78;10882.383;  202.817;10632.117;-0.01030
 924.33;10688.050;  195.817;10497.117;-0.00798
 924.89;10540.050;  196.483;10361.117;-0.00758
 925.44;10419.383;  204.817;10248.117;-0.00734
 926.00;10317.717;  201.150;10018.783;-0.01303
 926.55;10209.383;  205.150; 9867.117;-0.01512
 927.11;10074.717;  188.150; 9720.450;-0.01585
 927.66;10006.717;  177.817; 9717.117;-0.01299
 928.22; 9954.383;  174.483; 9670.783;-0.01278
 928.77; 9972.383;  190.150; 9636.117;-0.01519
 929.33; 9948.050;  204.150; 9587.783;-0.01636
 929.88; 9882.717;  205.150; 9516.450;-0.01676
 930.43; 9864.717;  182.483; 9493.450;-0.01698
 930.99; 9799.383;  174.817; 9470.117;-0.01512
 931.54; 9789.717;  167.150; 9456.783;-0.01529
 932.10; 9748.050;  190.150; 9473.117;-0.01268
 932.65; 9786.050;  197.150; 9480.117;-0.01408
 933.21; 9769.717;  198.483; 9496.450;-0.01258
 933.76; 9819.050;  187.483; 9472.117;-0.01593
 934.31; 9788.050;  183.150; 9454.117;-0.01537
 934.87; 9752.717;  190.150; 9433.783;-0.01473
 935.42; 9715.717;  199.483; 9431.450;-0.01317
 935.98; 9705.717;  195.483; 9388.450;-0.01474
 936.53; 9716.383;  193.817; 9335.450;-0.01773
 937.08; 9630.383;  191.150; 9347.783;-0.01320
 937.64; 9601.383;  197.817; 9356.783;-0.01145
 938.19; 9568.050;  196.483; 9425.117;-0.00667
 938.74; 9583.050;  199.817; 9340.117;-0.01139
 939.30; 9517.050;  187.150; 9339.783;-0.00833
 939.85; 9501.383;  186.483; 9209.783;-0.01381
 940.40; 9496.717;  173.817; 9251.783;-0.01156
 940.96; 9521.383;  187.150; 9238.450;-0.01337
 941.51; 9519.050;  189.483; 9244.783;-0.01296
 942.06; 9416.717;  197.150; 9160.450;-0.01224
 942.62; 9351.383;  184.817; 9036.783;-0.01517
 943.17; 9261.717;  195.150; 8966.450;-0.01438
 943.72; 9195.383;  180.483; 8903.117;-0.01431
 944.28; 9179.717;  199.483; 8795.117;-0.01901
 944.83; 9127.050;  184.150; 8766.783;-0.01786
 945.38; 9138.383;  194.483; 8735.117;-0.02004
 945.94; 9057.383;  186.483; 8804.450;-0.01256
 946.49; 8987.050;  205.150; 8772.783;-0.01073
 947.04; 8885.383;  208.817; 8738.117;-0.00743
 947.60; 8803.717;  215.150; 8638.117;-0.00846
 948.15; 8756.717;  203.483; 8519.117;-0.01223
 948.70; 8701.383;  212.817; 8413.783;-0.01497
 949.25; 8593.050;  206.150; 8325.117;-0.01410
 949.81; 8489.383;  208.817; 8271.117;-0.01160
 950.36; 8369.383;  198.483; 8157.117;-0.01143
 950.91; 8251.717;  207.150; 8037.783;-0.01171
 951.46; 8078.050;  203.817; 7873.117;-0.01145
 952.02; 7905.717;  207.150; 7734.117;-0.00979
 952.57; 7780.717;  207.150; 7606.450;-0.01011
 953.12; 7694.050;  218.483; 7526.117;-0.00987
 953.67; 7601.383;  218.150; 7443.783;-0.00937
 954.23; 7496.383;  215.817; 7359.450;-0.00825
 954.78; 7375.717;  208.150; 7234.450;-0.00865
 955.33; 7229.050;  218.150; 7119.783;-0.00682
 955.88; 7125.717;  217.150; 6980.117;-0.00925
 956.44; 7018.050;  230.483; 6838.450;-0.01165
 956.99; 6951.717;  228.817; 6737.117;-0.01409
 957.54; 6869.383;  223.817; 6672.783;-0.01304
 958.09; 6842.050;  222.150; 6636.783;-0.01368
 958.64; 6863.050;  206.817; 6607.450;-0.01701
 959.20; 6797.383;  203.483; 6532.450;-0.01781
 959.75; 6748.050;  199.817; 6496.450;-0.01702
 960.30; 6622.717;  218.150; 6441.783;-0.01245
 960.85; 6593.717;  225.150; 6424.450;-0.01170
 961.40; 6554.383;  228.817; 6381.117;-0.01206
 961.95; 6558.383;  231.817; 6360.783;-0.01378
 962.51; 6549.717;  239.483; 6360.117;-0.01325
 963.06; 6577.050;  242.817; 6380.117;-0.01372
 963.61; 6602.383;  234.150; 6314.783;-0.02007
 964.16; 6640.717;  235.150; 6258.450;-0.02672
 964.71; 6615.383;  222.483; 6212.117;-0.02830
 965.26; 6641.717;  213.150; 6253.117;-0.02708
 965.81; 6600.050;  210.817; 6289.117;-0.02167
 966.36; 6598.050;  208.483; 6323.783;-0.01905
 966.92; 6566.717;  216.150; 6305.117;-0.01827
 967.47; 6544.717;  218.483; 6338.117;-0.01442
 968.02; 6593.050;  232.483; 6354.117;-0.01663
 968.57; 6671.383;  234.817; 6375.450;-0.02044
 969.12; 6752.383;  219.817; 6368.783;-0.02628
 969.67; 6730.050;  204.483; 6420.783;-0.02109
 970.22; 6694.383;  194.150; 6469.783;-0.01527
 970.77; 6787.717;  199.817; 6539.117;-0.01671
 971.32; 6863.717;  197.483; 6593.117;-0.01800
 971.87; 7004.383;  198.817; 6693.117;-0.02033
 972.42; 7082.050;  215.150; 6793.117;-0.01867
 972.98; 7212.717;  220.817; 6908.783;-0.01930
 973.53; 7264.050;  231.483; 6996.117;-0.01687
 974.08; 7356.050;  215.483; 7040.450;-0.01963
 974.63; 7385.050;  223.483; 7078.450;-0.01900
 975.18; 7475.717;  218.483; 7103.117;-0.02289
 975.73; 7506.383;  224.817; 7157.450;-0.02133
 976.28; 7572.050;  221.483; 7219.117;-0.02137
 976.83; 7570.050;  221.483; 7315.450;-0.01531
 977.38; 7561.050;  219.483; 7373.783;-0.01122
 977.93; 7580.383;  222.150; 7387.450;-0.01154
 978.48; 7595.717;  228.483; 7365.783;-0.01377
 979.03; 7616.050;  234.817; 7358.117;-0.01545
 979.58; 7639.050;  221.483; 7329.117;-0.01854
 980.13; 7650.050;  207.150; 7367.783;-0.01679
 980.68; 7618.383;  186.483; 7310.450;-0.01838
 981.23; 7546.717;  185.817; 7278.117;-0.01614
 981.78; 7490.050;  207.150; 7207.450;-0.01719
 982.33; 7482.050;  219.150; 7257.117;-0.01366
 982.88; 7494.383;  232.483; 7211.783;-0.01724
 983.43; 7422.050;  218.150; 7145.783;-0.01698
 983.98; 7343.050;  215.150; 6984.117;-0.02244
 984.53; 7177.383;  203.817; 6873.450;-0.01935
 985.08; 7182.717;  209.817; 6835.783;-0.02216
 985.63; 7082.717;  211.150; 6787.117;-0.01910
 986.18; 7071.050;  218.817; 6756.783;-0.02039
 986.73; 6962.050;  218.483; 6610.450;-0.02326
 987.27; 6906.717;  227.483; 6521.117;-0.02583
 987.82; 6825.383;  238.483; 6431.783;-0.02676
 988.37; 6718.717;  243.150; 6400.783;-0.02186
 988.92; 6651.383;  234.150; 6351.117;-0.02081
 989.47; 6538.383;  214.483; 6285.117;-0.01775
 990.02; 6453.383;  208.483; 6199.117;-0.01805
 990.57; 6401.383;  208.150; 6083.117;-0.02291
 991.12; 6316.717;  215.150; 6044.450;-0.01982
 991.67; 6214.383;  213.817; 5969.117;-0.01812
 992.22; 6066.050;  200.483; 5915.450;-0.01130
 992.77; 6008.050;  200.150; 5802.450;-0.01565
 993.31; 5946.050;  204.817; 5735.783;-0.01620
 993.86; 5881.050;  230.483; 5683.783;-0.01543
 994.41; 5810.050;  235.150; 5580.117;-0.01829
 994.96; 5669.383;  226.483; 5473.117;-0.01595
 995.51; 5581.050;  218.817; 5377.783;-0.01678
 996.06; 5446.717;  208.483; 5293.783;-0.01287
 996.61; 5422.717;  222.483; 5201.783;-0.01885
 997.15; 5277.050;  236.150; 5083.450;-0.01701
 997.70; 5159.383;  241.150; 4965.117;-0.01750
 998.25; 5043.383;  247.483; 4873.450;-0.01567
 998.80; 4943.717;  248.483; 4740.117;-0.01925
 999.35; 4828.383;  249.483; 4623.450;-0.01989
 999.90; 4642.050;  236.150; 4455.117;-0.01883
1000.44; 4500.383;  224.483; 4340.450;-0.01656
1000.99; 4331.050;  232.483; 4190.783;-0.01512
1001.54; 4207.383;  237.150; 4067.450;-0.01558
1002.09; 4056.383;  231.817; 3939.117;-0.01352
1002.64; 3987.717;  238.483; 3855.450;-0.01560
1003.18; 3906.717;  240.483; 3766.783;-0.01690
1003.73; 3842.050;  238.483; 3661.450;-0.02233
1004.28; 3711.050;  226.817; 3584.450;-0.01607
1004.83; 3584.383;  209.483; 3488.117;-0.01257
1005.38; 3504.717;  210.150; 3420.783;-0.01121
1005.92; 3460.717;  219.150; 3321.783;-0.01902
1006.47; 3408.383;  236.817; 3231.783;-0.02488
1007.02; 3324.383;  235.483; 3140.117;-0.02671
1007.57; 3225.717;  222.817; 3087.450;-0.02047
1008.11; 3148.383;  211.817; 3028.450;-0.01811
1008.66; 3054.383;  205.150; 2973.450;-0.01251
1009.21; 2975.050;  192.483; 2907.783;-0.01063
1009.75; 2889.717;  177.817; 2862.117;-0.00444
1010.30; 2864.383;  170.150; 2793.117;-0.01164
1010.85; 2808.383;  176.817; 2712.783;-0.01607
1011.40; 2754.050;  204.150; 2628.450;-0.02194
1011.94; 2665.717;  221.817; 2545.783;-0.02185
1012.49; 2569.717;  216.483; 2464.450;-0.01988
1013.04; 2471.717;  194.150; 2362.117;-0.02142
1013.58; 2401.717;  184.150; 2325.117;-0.01527
1014.13; 2353.050;  188.483; 2268.117;-0.01738
1014.68; 2299.050;  196.483; 2233.450;-0.01377
1015.23; 2233.050;  203.150; 2181.450;-0.01118
1015.77; 2150.050;  199.817; 2113.117;-0.00830
1016.32; 2110.383;  204.817; 2072.450;-0.00873
1016.87; 2074.717;  209.483; 2012.783;-0.01467
1017.41; 2064.383;  206.817; 1977.450;-0.02082
1017.96; 2022.050;  194.817; 1953.450;-0.01662
1018.50; 1968.383;  186.483; 1926.450;-0.01034
1019.05; 1928.717;  188.483; 1903.450;-0.00635
1019.60; 1879.383;  182.817; 1815.783;-0.01659
1020.14; 1841.050;  196.150; 1752.783;-0.02395
1020.69; 1777.717;  196.150; 1698.117;-0.02243
1021.24; 1723.717;  209.483; 1650.450;-0.02154
1021.78; 1678.383;  188.483; 1620.450;-0.01722
1022.33; 1637.717;  190.150; 1592.450;-0.01380
1022.87; 1577.050;  182.817; 1587.783; 0.00333
1023.42; 1543.383;  198.150; 1567.117; 0.00760
1023.97; 1509.717;  200.150; 1516.117; 0.00212
1024.51; 1505.717;  212.150; 1465.117;-0.01385
1025.06; 1466.717;  200.483; 1401.117;-0.02310
1025.60; 1433.050;  198.817; 1340.783;-0.03374
1026.15; 1372.383;  181.150; 1307.783;-0.02421
1026.70; 1320.383;  185.483; 1284.783;-0.01384
1027.24; 1288.383;  195.483; 1279.783;-0.00343
1027.79; 1270.717;  200.483; 1270.450;-0.00011
1028.33; 1245.050;  197.483; 1252.450; 0.00306
1028.88; 1218.717;  188.817; 1215.450;-0.00138
1029.42; 1197.383;  208.150; 1198.450; 0.00047
1029.97; 1171.383;  197.817; 1156.450;-0.00671
1030.51; 1154.050;  190.150; 1127.117;-0.01231
1031.06; 1148.050;  182.817; 1088.783;-0.02752
1031.61; 1147.050;  192.483; 1063.117;-0.03997
1032.15; 1128.383;  210.150; 1050.450;-0.03852
1032.70; 1104.050;  202.817; 1024.117;-0.04034
1033.24; 1068.717;  206.483; 1018.117;-0.02626
1033.79; 1055.717;  200.817; 1020.450;-0.01830
1034.33; 1051.717;  199.817; 1016.450;-0.01836
1034.88; 1034.383;  201.817; 1008.783;-0.01356
1035.42; 1010.050;  202.817;  979.450;-0.01678
1035.97;  993.050;  204.483;  950.450;-0.02412
1036.51;  999.050;  206.483;  931.450;-0.03872
1037.06;  995.717;  200.817;  944.117;-0.02915
1037.60;  996.383;  207.150;  948.783;-0.02702
1038.14;  965.050;  204.150;  928.783;-0.02121
1038.69;  962.050;  222.150;  927.783;-0.02059
1039.23;  957.717;  234.483;  935.783;-0.01337
1039.78;  975.383;  235.150;  948.783;-0.01589
1040.32;  949.717;  224.483;  915.783;-0.02081
1040.87;  920.717;  208.483;  887.117;-0.02099
1041.41;  897.050;  198.150;  864.117;-0.02096
1041.96;  896.717;  200.817;  882.783;-0.00878
1042.50;  912.383;  197.817;  893.117;-0.01187
1043.04;  935.717;  213.817;  899.117;-0.02260
1043.59;  925.383;  217.150;  867.450;-0.03706
1044.13;  889.383;  212.483;  869.450;-0.01298
1044.68;  883.717;  205.817;  862.117;-0.01406
1045.22;  899.383;  199.150;  873.783;-0.01617
1045.76;  907.050;  201.817;  869.450;-0.02379
1046.31;  857.383;  193.483;  861.783; 0.00287
1046.85;  834.050;  200.483;  842.117; 0.00549
1047.40;  815.383;  202.483;  813.783;-0.00114
1047.94;  835.717;  215.150;  808.783;-0.01927
1048.48;  836.383;  211.150;  810.117;-0.01864
1049.03;  844.050;  214.483;  793.450;-0.03639
1049.57;  845.717;  229.150;  787.117;-0.04337
1050.11;  839.050;  222.817;  774.117;-0.04836
1050.66;  813.383;  218.483;  779.117;-0.02577
1051.20;  801.050;  206.483;  794.450;-0.00485
1051.74;  792.717;  200.817;  788.117;-0.00339
1052.29;  781.383;  200.150;  780.783;-0.00045
1052.83;  764.050;  199.150;  748.117;-0.01243
1053.37;  764.717;  224.817;  744.783;-0.01634
1053.92;  781.383;  234.150;  739.783;-0.03434
1054.46;  786.717;  236.483;  734.117;-0.04364
1055.00;  786.383;  231.483;  739.117;-0.03866
1055.55;  777.050;  230.817;  738.117;-0.03211
1056.09;  744.717;  223.817;  747.783; 0.00255
1056.63;  711.717;  215.817;  711.783; 0.00006
1057.17;  690.383;  216.483;  709.117; 0.01684
1057.72;  694.050;  225.150;  697.450; 0.00314
1058.26;  693.383;  223.483;  705.783; 0.01131
1058.80;  713.717;  229.817;  700.450;-0.01207
1059.35;  707.383;  230.483;  686.450;-0.01949
1059.89;  703.383;  230.150;  672.450;-0.02936
1060.43;  671.383;  227.817;  654.783;-0.01656
1060.97;  647.717;  223.817;  667.117; 0.01943
1061.52;  649.717;  231.150;  682.450; 0.03270
1062.06;  646.383;  231.483;  671.450; 0.02548
1062.60;  673.717;  236.483;  658.450;-0.01544
1063.14;  665.717;  232.483;  640.783;-0.02574
1063.69;  653.383;  216.483;  640.117;-0.01339
1064.23;  635.717;  208.817;  619.783;-0.01652
1064.77;  636.050;  200.483;  598.450;-0.03921
1065.31;  630.383;  201.817;  577.450;-0.05725
1065.85;  625.050;  206.483;  567.117;-0.06470
1066.40;  614.383;  205.150;  579.450;-0.03875
1066.94;  627.383;  217.817;  579.117;-0.05446
1067.48;  624.050;  209.150;  587.783;-0.03972
1068.02;  612.383;  233.817;  562.450;-0.06143
1068.56;  581.717;  216.817;  564.783;-0.02064
1069.10;  564.383;  212.817;  549.783;-0.01842
1069.65;  567.717;  195.817;  566.450;-0.00148
1070.19;  592.050;  208.817;  566.783;-0.02962
1070.73;  593.050;  223.817;  582.783;-0.01225
1071.27;  582.383;  215.817;  567.117;-0.01847
1071.81;  548.383;  207.150;  562.117; 0.01714
1072.35;  572.717;  201.817;  549.117;-0.02855
1072.90;  558.717;  197.150;  546.783;-0.01458
1073.44;  560.717;  202.817;  540.117;-0.02575
1073.98;  564.050;  206.150;  531.450;-0.04148
1074.52;  576.383;  224.483;  538.783;-0.04907
1075.06;  578.383;  218.483;  542.450;-0.04568
1075.60;  525.383;  207.483;  531.450; 0.00821
1076.14;  519.717;  204.817;  514.117;-0.00779
1076.68;  512.717;  207.150;  504.450;-0.01191
1077.22;  542.717;  225.817;  504.783;-0.05537
1077.76;  531.717;  214.817;  498.117;-0.04868
1078.31;  536.050;  229.817;  499.783;-0.05474
1078.85;  527.383;  226.483;  517.117;-0.01508
1079.39;  538.717;  243.817;  525.450;-0.01999
1079.93;  528.383;  237.817;  507.783;-0.03194
1080.47;  512.717;  227.483;  476.450;-0.05906
1081.01;  498.717;  216.150;  474.783;-0.03844
1081.55;  507.050;  208.483;  488.783;-0.02742
1082.09;  510.717;  205.817;  488.783;-0.03242
1082.63;  533.050;  210.150;  496.450;-0.05225
1083.17;  536.383;  221.150;  500.783;-0.05204
1083.71;  541.383;  228.817;  501.450;-0.05936
1084.25;  508.050;  224.483;  471.117;-0.06060
1084.79;  498.050;  214.483;  446.450;-0.08723
1085.33;  498.050;  202.817;  450.783;-0.07577
1085.87;  496.383;  199.483;  468.450;-0.04291
1086.41;  494.050;  214.483;  471.450;-0.03661
1086.95;  483.383;  222.150;  467.117;-0.02792
1087.49;  500.383;  225.817;  454.783;-0.07888
1088.03;  500.383;  216.817;  454.117;-0.07736
1088.57;  492.717;  219.817;  450.783;-0.07245
1089.11;  473.050;  222.150;  448.117;-0.04546
1089.65;  480.383;  233.150;  458.783;-0.03970
1090.19;  472.383;  238.483;  468.117;-0.00800
1090.73;  472.383;  240.483;  471.783;-0.00113
1091.27;  459.383;  238.817;  466.117; 0.01306
1091.81;  469.383;  238.483;  458.117;-0.02173
1092.35;  477.717;  247.483;  461.450;-0.03182
1092.89;  469.717;  232.150;  457.450;-0.02302
1093.43;  459.717;  223.817;  445.783;-0.02644
1093.97;  443.717;  210.150;  441.117;-0.00486
1094.51;  444.050;  208.483;  440.450;-0.00669
1095.04;  451.717;  218.483;  442.783;-0.01696
1095.58;  463.050;  238.817;  436.783;-0.05411
1096.12;  456.717;  242.817;  428.783;-0.06078
1096.66;  452.717;  239.817;  430.450;-0.04798
1097.20;  444.383;  235.817;  449.450; 0.01042
1097.74;  455.383;  246.817;  456.783; 0.00291
1098.28;  440.383;  235.817;  457.117; 0.03415
1098.82;  444.383;  230.483;  453.117; 0.01738
1099.36;  433.050;  228.150;  446.450; 0.02751
1099.89;  444.717;  230.150;  447.450; 0.00550

