
Integration time [ms]:   0.300
Averaging Nr. [scans]: 1
Smoothing Nr. [pixels]: 1
Data measured with spectrometer [name]: 1906252U1
Wave   ;Sample   ;Dark     ;Reference;Absorbance
[nm]   ;[counts] ;[counts] ;[counts] ;[A.U]

 161.30;  300.939;  271.207;  271.637; 0.00000
 161.90;  264.650;  265.524;  261.712; 0.00000
 162.51;  258.693;  259.038;  260.433; 5.00000
 163.11;  271.435;  265.693;  251.834; 0.00000
 163.71;  270.067;  276.696;  266.803; 0.00000
 164.31;  268.076;  294.270;  273.488; 0.00000
 164.91;  273.337;  288.393;  287.410; 0.00000
 165.52;  270.865;  277.299;  279.261; 5.00000
 166.12;  261.337;  271.979;  273.718; 5.00000
 166.72;  268.044;  272.971;  259.755; 0.00000
 167.32;  273.992;  271.656;  271.040; 0.00000
 167.93;  281.480;  261.266;  267.518;-0.50964
 168.53;  274.920;  254.112;  260.296;-0.52700
 169.13;  280.546;  264.427;  257.261; 0.00000
 169.73;  291.970;  271.677;  266.351; 0.00000
 170.33;  317.788;  291.614;  320.561; 0.04373
 170.94;  322.861;  317.756;  347.746; 0.76895
 171.54;  333.948;  335.278;  387.239; 5.00000
 172.14;  333.574;  338.926;  375.538; 5.00000
 172.74;  334.892;  324.358;  373.181; 0.66603
 173.34;  337.275;  319.589;  355.569; 0.30844
 173.95;  332.965;  309.596;  343.923; 0.16700
 174.55;  344.270;  318.289;  355.228; 0.15283
 175.15;  348.196;  320.689;  367.155; 0.22769
 175.75;  347.576;  322.370;  380.195; 0.36061
 176.35;  352.070;  332.415;  382.036; 0.40218
 176.95;  347.926;  327.740;  392.907; 0.50897
 177.56;  350.039;  327.608;  398.355; 0.49887
 178.16;  338.323;  316.738;  399.298; 0.58262
 178.76;  345.523;  316.306;  398.487; 0.44914
 179.36;  348.389;  310.874;  401.343; 0.38230
 179.96;  352.198;  304.800;  395.813; 0.28334
 180.56;  358.350;  308.938;  392.969; 0.23060
 181.17;  364.483;  318.009;  403.448; 0.26444
 181.77;  375.544;  318.897;  417.181; 0.23930
 182.37;  357.810;  306.653;  404.111; 0.27991
 182.97;  364.821;  319.309;  413.789; 0.31721
 183.57;  389.314;  323.525;  427.944; 0.20063
 184.17;  430.479;  336.736;  473.104; 0.16278
 184.78;  447.299;  316.624;  484.587; 0.10902
 185.38;  445.874;  315.012;  504.833; 0.16153
 185.98;  455.335;  315.783;  504.638; 0.13139
 186.58;  460.142;  316.598;  510.449; 0.13048
 187.18;  451.368;  313.002;  491.678; 0.11104
 187.78;  461.424;  324.256;  526.070; 0.16770
 188.38;  468.514;  331.840;  541.159; 0.18512
 188.98;  478.554;  337.804;  574.199; 0.22519
 189.59;  477.228;  332.575;  567.529; 0.21065
 190.19;  480.757;  326.870;  580.708; 0.21736
 190.79;  495.648;  326.914;  573.939; 0.16554
 191.39;  478.652;  317.159;  564.285; 0.18476
 191.99;  481.406;  322.498;  545.363; 0.14690
 192.59;  465.977;  317.307;  539.929; 0.17535
 193.19;  465.749;  313.765;  525.712; 0.14443
 193.79;  467.313;  325.164;  530.280; 0.15925
 194.39;  458.373;  328.250;  517.658; 0.16304
 195.00;  441.200;  327.216;  511.139; 0.20779
 195.60;  414.453;  305.566;  480.732; 0.20647
 196.20;  417.519;  304.088;  469.473; 0.16376
 196.80;  413.707;  305.278;  453.989; 0.13720
 197.40;  403.564;  313.686;  455.186; 0.19710
 198.00;  378.162;  320.693;  452.457; 0.36036
 198.60;  360.655;  317.270;  442.943; 0.46190
 199.20;  351.566;  312.435;  427.513; 0.46847
 199.80;  368.483;  303.957;  416.753; 0.24256
 200.40;  352.262;  299.492;  396.868; 0.26606
 201.00;  340.820;  293.841;  371.434; 0.21792
 201.60;  308.119;  292.845;  340.403; 0.49327
 202.21;  325.621;  298.995;  352.240; 0.30097
 202.81;  332.939;  303.760;  367.883; 0.34194
 203.41;  330.653;  301.801;  377.921; 0.42133
 204.01;  323.009;  296.447;  373.611; 0.46315
 204.61;  310.202;  287.965;  374.799; 0.59162
 205.21;  333.407;  280.528;  391.328; 0.32125
 205.81;  336.985;  276.000;  394.567; 0.28874
 206.41;  342.746;  281.190;  389.667; 0.24606
 207.01;  327.920;  291.585;  373.516; 0.35313
 207.61;  317.952;  290.832;  349.221; 0.33304
 208.21;  318.823;  294.007;  340.088; 0.26878
 208.81;  317.450;  285.376;  350.048; 0.30456
 209.41;  318.012;  292.971;  355.294; 0.39600
 210.01;  318.207;  286.985;  361.835; 0.37973
 210.61;  324.699;  290.534;  351.990; 0.25498
 211.21;  313.272;  293.399;  356.219; 0.49983
 211.81;  320.326;  300.157;  352.258; 0.41216
 212.41;  304.913;  301.896;  344.513; 1.14998
 213.01;  317.679;  296.332;  351.625; 0.41333
 213.61;  303.724;  285.263;  357.339; 0.59153
 214.21;  319.138;  282.939;  368.411; 0.37313
 214.81;  311.456;  278.704;  361.387; 0.40218
 215.41;  330.050;  282.466;  362.645; 0.22660
 216.01;  321.925;  278.247;  362.189; 0.28371
 216.61;  330.190;  287.920;  357.792; 0.21828
 217.21;  314.115;  290.599;  357.391; 0.45337
 217.81;  314.195;  297.221;  367.800; 0.61890
 218.41;  309.144;  301.628;  379.081; 1.01306
 219.01;  318.227;  307.801;  388.505; 0.88877
 219.61;  320.629;  301.739;  384.906; 0.64373
 220.21;  318.908;  297.568;  378.507; 0.57897
 220.81;  309.118;  283.737;  372.713; 0.54477
 221.41;  321.095;  284.091;  376.024; 0.39522
 222.01;  326.457;  280.426;  372.049; 0.29895
 222.61;  336.184;  298.953;  367.451; 0.26477
 223.21;  318.819;  301.813;  357.103; 0.51205
 223.81;  332.063;  301.952;  360.676; 0.29008
 224.41;  326.028;  281.875;  343.618; 0.14563
 225.01;  325.335;  269.317;  340.250; 0.10252
 225.61;  312.107;  274.108;  341.033; 0.24582
 226.21;  302.980;  273.112;  349.918; 0.41019
 226.81;  289.567;  286.490;  349.175; 1.30910
 227.41;  300.674;  284.059;  344.282; 0.55924
 228.01;  315.976;  302.172;  351.241; 0.55083
 228.61;  336.888;  306.727;  360.474; 0.25090
 229.21;  325.114;  303.825;  362.700; 0.44178
 229.81;  325.197;  308.998;  372.791; 0.59529
 230.41;  335.468;  299.055;  383.396; 0.36478
 231.01;  346.010;  300.808;  405.942; 0.36659
 231.61;  337.495;  287.307;  401.095; 0.35550
 232.21;  321.231;  300.328;  383.489; 0.59970
 232.81;  319.013;  296.307;  370.928; 0.51672
 233.41;  326.748;  302.578;  372.995; 0.46441
 234.00;  348.661;  298.240;  379.918; 0.20949
 234.60;  347.027;  290.487;  363.623; 0.11177
 235.20;  336.665;  295.152;  359.264; 0.18875
 235.80;  323.835;  295.330;  365.432; 0.39081
 236.40;  325.118;  302.765;  379.044; 0.53306
 237.00;  339.224;  303.584;  384.824; 0.35783
 237.60;  336.041;  294.000;  377.651; 0.29880
 238.20;  333.273;  295.121;  389.214; 0.39204
 238.80;  314.072;  274.112;  389.668; 0.46116
 239.40;  322.155;  279.177;  403.402; 0.46097
 240.00;  322.058;  284.599;  402.640; 0.49847
 240.59;  342.050;  298.133;  401.312; 0.37096
 241.19;  340.145;  297.989;  399.745; 0.38271
 241.79;  342.117;  288.710;  384.715; 0.25469
 242.39;  348.649;  292.222;  383.909; 0.21082
 242.99;  346.191;  286.642;  375.121; 0.17197
 243.59;  333.821;  289.230;  388.763; 0.34872
 244.19;  315.291;  286.160;  385.560; 0.53303
 244.79;  324.062;  287.511;  384.652; 0.42450
 245.39;  343.967;  287.293;  395.554; 0.28109
 245.98;  340.198;  273.053;  391.453; 0.24634
 246.58;  320.027;  274.487;  389.290; 0.40156
 247.18;  327.427;  285.342;  384.364; 0.37161
 247.78;  327.496;  295.696;  398.758; 0.51066
 248.38;  343.570;  288.656;  421.162; 0.38255
 248.98;  330.381;  277.356;  419.988; 0.42974
 249.58;  332.731;  265.673;  430.671; 0.39103
 250.17;  334.581;  275.285;  426.842; 0.40755
 250.77;  328.705;  283.143;  431.967; 0.51407
 251.37;  334.483;  286.929;  425.089; 0.46320
 251.97;  328.541;  270.293;  429.805; 0.43751
 252.57;  332.628;  265.298;  436.882; 0.40627
 253.17;  337.242;  272.929;  449.172; 0.43781
 253.77;  350.689;  284.186;  466.282; 0.43746
 254.36;  352.527;  295.474;  468.774; 0.48252
 254.96;  349.318;  295.333;  480.567; 0.53545
 255.56;  328.386;  288.604;  484.301; 0.69190
 256.16;  337.936;  278.462;  506.509; 0.58370
 256.76;  331.201;  277.524;  496.109; 0.60983
 257.36;  343.699;  276.735;  508.603; 0.53940
 257.95;  330.813;  264.992;  503.713; 0.55953
 258.55;  328.179;  264.239;  518.084; 0.59880
 259.15;  327.552;  260.564;  510.454; 0.57175
 259.75;  332.761;  269.345;  523.998; 0.60375
 260.35;  335.055;  267.461;  538.318; 0.60283
 260.94;  325.147;  268.819;  539.764; 0.68216
 261.54;  325.493;  275.530;  547.771; 0.73631
 262.14;  334.830;  279.723;  553.422; 0.69607
 262.74;  344.256;  296.084;  592.169; 0.78862
 263.34;  365.352;  285.302;  604.600; 0.60083
 263.93;  356.291;  271.414;  619.201; 0.61252
 264.53;  368.206;  269.158;  628.783; 0.56001
 265.13;  333.645;  270.950;  628.566; 0.75618
 265.73;  338.216;  275.426;  648.466; 0.77386
 266.33;  333.156;  278.566;  678.397; 0.86477
 266.92;  342.773;  275.029;  689.673; 0.78680
 267.52;  345.824;  279.954;  705.726; 0.81049
 268.12;  344.029;  273.264;  717.281; 0.79758
 268.72;  341.581;  281.951;  749.175; 0.89406
 269.31;  347.575;  293.596;  782.505; 0.95700
 269.91;  332.763;  296.813;  783.686; 1.13172
 270.51;  350.839;  298.884;  823.747; 1.00441
 271.11;  356.451;  296.018;  844.685; 0.95803
 271.70;  364.110;  281.274;  877.686; 0.85732
 272.30;  346.667;  270.568;  887.924; 0.90916
 272.90;  348.492;  264.784;  909.412; 0.88654
 273.50;  362.614;  274.785;  916.521; 0.86372
 274.09;  368.623;  285.359;  947.539; 0.90052
 274.69;  354.762;  293.425;  961.690; 1.03723
 275.29;  355.119;  297.126; 1011.041; 1.09027
 275.89;  365.930;  301.162; 1057.168; 1.06716
 276.48;  394.809;  306.441; 1108.365; 0.95784
 277.08;  397.116;  303.217; 1149.330; 0.95476
 277.68;  408.375;  300.562; 1156.928; 0.89999
 278.28;  401.180;  297.934; 1188.748; 0.93591
 278.87;  410.642;  305.120; 1219.213; 0.93765
 279.47;  428.458;  316.402; 1279.019; 0.93402
 280.07;  435.978;  311.564; 1306.537; 0.90294
 280.66;  444.243;  305.599; 1329.806; 0.86849
 281.26;  441.379;  299.502; 1356.605; 0.87220
 281.86;  447.906;  299.353; 1408.460; 0.87309
 282.46;  444.442;  289.111; 1464.667; 0.87899
 283.05;  460.957;  270.001; 1525.842; 0.81800
 283.65;  483.364;  269.267; 1577.248; 0.78599
 284.25;  509.460;  276.537; 1628.707; 0.76382
 284.84;  503.559;  297.639; 1660.819; 0.82086
 285.44;  512.771;  304.585; 1722.349; 0.83315
 286.04;  529.392;  306.626; 1767.304; 0.81671
 286.63;  558.627;  299.604; 1827.551; 0.77077
 287.23;  564.995;  285.934; 1878.582; 0.75642
 287.83;  560.726;  285.987; 1956.635; 0.78396
 288.42;  571.893;  282.947; 2012.456; 0.77711
 289.02;  603.118;  281.018; 2081.351; 0.74736
 289.62;  635.453;  274.153; 2105.373; 0.70487
 290.21;  660.961;  278.965; 2173.882; 0.69553
 290.81;  693.924;  296.139; 2171.832; 0.67351
 291.41;  722.037;  301.675; 2217.279; 0.65868
 292.00;  744.348;  287.695; 2273.257; 0.63830
 292.60;  754.339;  266.816; 2355.570; 0.63189
 293.20;  778.383;  269.053; 2441.953; 0.63004
 293.79;  790.956;  275.331; 2498.541; 0.63465
 294.39;  823.203;  284.326; 2544.463; 0.62265
 294.99;  854.843;  280.435; 2588.095; 0.60395
 295.58;  880.721;  284.687; 2619.961; 0.59307
 296.18;  897.332;  271.100; 2672.236; 0.58368
 296.78;  917.620;  267.474; 2741.524; 0.58040
 297.37;  965.003;  256.039; 2819.912; 0.55827
 297.97; 1009.868;  255.858; 2927.442; 0.54939
 298.57; 1054.647;  262.727; 2989.557; 0.53698
 299.16; 1099.197;  278.359; 3083.789; 0.53374
 299.76; 1125.440;  281.775; 3176.366; 0.53542
 300.35; 1166.782;  281.214; 3269.362; 0.52818
 300.95; 1194.543;  278.404; 3324.462; 0.52178
 301.55; 1250.580;  287.229; 3346.846; 0.50188
 302.14; 1277.426;  278.314; 3431.366; 0.49912
 302.74; 1336.590;  277.164; 3537.862; 0.48824
 303.33; 1341.976;  277.506; 3665.575; 0.50282
 303.93; 1397.347;  284.053; 3763.621; 0.49492
 304.53; 1411.131;  290.889; 3809.743; 0.49709
 305.12; 1481.800;  285.666; 3889.067; 0.47893
 305.72; 1504.818;  304.345; 3962.749; 0.48394
 306.31; 1537.223;  292.556; 4062.826; 0.48132
 306.91; 1556.302;  290.122; 4183.574; 0.48784
 307.51; 1606.800;  280.000; 4278.734; 0.47912
 308.10; 1667.784;  295.710; 4394.048; 0.47523
 308.70; 1716.470;  291.190; 4468.751; 0.46702
 309.29; 1734.862;  287.634; 4547.826; 0.46889
 309.89; 1788.723;  264.902; 4638.675; 0.45792
 310.48; 1826.823;  273.673; 4739.754; 0.45871
 311.08; 1886.851;  268.620; 4876.118; 0.45442
 311.68; 1923.769;  273.221; 4959.384; 0.45319
 312.27; 1979.335;  278.703; 5074.278; 0.45023
 312.87; 2030.579;  271.869; 5225.848; 0.44976
 313.46; 2092.743;  276.691; 5385.013; 0.44915
 314.06; 2161.286;  276.193; 5529.885; 0.44513
 314.65; 2251.299;  282.238; 5632.559; 0.43412
 315.25; 2309.001;  283.262; 5774.255; 0.43307
 315.85; 2369.622;  277.637; 5914.876; 0.43051
 316.44; 2400.684;  287.913; 6071.938; 0.43738
 317.04; 2466.736;  295.255; 6216.984; 0.43569
 317.63; 2533.752;  310.823; 6400.341; 0.43766
 318.23; 2600.692;  298.737; 6546.296; 0.43361
 318.82; 2673.954;  293.221; 6674.883; 0.42822
 319.42; 2741.955;  273.276; 6781.545; 0.42100
 320.01; 2789.042;  280.055; 6929.646; 0.42330
 320.61; 2858.062;  290.511; 7164.652; 0.42770
 321.20; 2941.039;  285.758; 7272.939; 0.42019
 321.80; 3029.471;  292.860; 7497.718; 0.42041
 322.39; 3071.601;  275.154; 7636.540; 0.42035
 322.99; 3106.612;  275.755; 7857.556; 0.42785
 323.58; 3202.270;  286.597; 7977.531; 0.42124
 324.18; 3311.092;  287.901; 8124.673; 0.41367
 324.77; 3381.757;  292.485; 8318.013; 0.41462
 325.37; 3405.576;  278.984; 8442.167; 0.41679
 325.96; 3466.374;  276.253; 8588.958; 0.41594
 326.56; 3571.843;  298.768; 8771.095; 0.41305
 327.15; 3638.853;  300.036; 8947.778; 0.41331
 327.75; 3678.943;  300.925; 9129.536; 0.41723
 328.34; 3718.256;  272.723; 9291.838; 0.41791
 328.94; 3835.998;  266.072; 9447.905; 0.41027
 329.53; 3947.636;  277.765; 9658.876; 0.40760
 330.13; 4040.211;  293.098; 9872.460; 0.40764
 330.72; 4101.968;  297.428;10112.576; 0.41159
 331.32; 4157.463;  296.807;10347.750; 0.41555
 331.91; 4262.111;  286.021;10578.045; 0.41304
 332.51; 4416.183;  290.846;10832.428; 0.40745
 333.10; 4519.110;  280.941;11112.686; 0.40752
 333.69; 4623.624;  268.720;11343.870; 0.40537
 334.29; 4607.388;  259.020;11372.294; 0.40752
 334.88; 4656.656;  263.526;11404.218; 0.40414
 335.48; 4667.942;  274.151;11347.513; 0.40144
 336.07; 4679.467;  277.361;11521.065; 0.40725
 336.67; 4694.175;  271.793;11561.792; 0.40704
 337.26; 4749.457;  270.478;11724.744; 0.40779
 337.86; 4815.139;  274.661;11795.073; 0.40437
 338.45; 4856.291;  285.081;11996.201; 0.40857
 339.04; 4862.472;  280.248;12122.714; 0.41237
 339.64; 4923.925;  279.247;12324.855; 0.41387
 340.23; 5002.964;  276.541;12444.594; 0.41069
 340.83; 5074.370;  283.446;12579.002; 0.40933
 341.42; 5111.157;  284.034;12728.085; 0.41127
 342.02; 5143.131;  280.810;12860.717; 0.41283
 342.61; 5188.219;  285.029;12994.842; 0.41366
 343.20; 5289.391;  280.703;13173.363; 0.41062
 343.80; 5373.892;  275.024;13326.514; 0.40819
 344.39; 5429.165;  277.525;13574.777; 0.41182
 344.99; 5454.306;  284.701;13698.586; 0.41410
 345.58; 5533.052;  281.629;13941.331; 0.41516
 346.17; 5637.669;  272.425;14086.941; 0.41075
 346.77; 5803.236;  263.601;14425.499; 0.40764
 347.36; 5885.147;  267.766;14640.403; 0.40800
 347.96; 5941.487;  271.456;14918.073; 0.41215
 348.55; 5940.485;  272.039;15018.413; 0.41522
 349.14; 5966.332;  269.152;15148.264; 0.41692
 349.74; 6057.712;  282.193;15379.635; 0.41731
 350.33; 6190.363;  292.264;15619.281; 0.41475
 350.92; 6300.496;  292.029;15990.758; 0.41710
 351.52; 6389.449;  276.988;16197.719; 0.41575
 352.11; 6416.098;  277.642;16449.038; 0.42069
 352.70; 6502.195;  293.221;16652.467; 0.42074
 353.30; 6601.755;  299.069;16923.354; 0.42122
 353.89; 6709.557;  289.556;17199.826; 0.42062
 354.49; 6821.849;  295.537;17471.125; 0.42024
 355.08; 6901.635;  303.789;17648.240; 0.41976
 355.67; 7012.941;  306.509;17850.877; 0.41765
 356.27; 7040.818;  292.678;18013.082; 0.41929
 356.86; 7103.784;  288.376;18230.048; 0.42037
 357.45; 7180.399;  297.756;18507.331; 0.42254
 358.05; 7353.023;  297.214;18684.613; 0.41597
 358.64; 7427.372;  292.504;18894.298; 0.41617
 359.23; 7505.564;  289.300;19081.825; 0.41567
 359.83; 7542.791;  289.121;19433.380; 0.42148
 360.42; 7639.004;  293.174;19722.600; 0.42242
 361.01; 7703.565;  287.355;19981.487; 0.42415
 361.61; 7746.620;  287.502;20183.522; 0.42608
 362.20; 7784.818;  294.987;20496.718; 0.43092
 362.79; 7835.719;  302.910;20634.303; 0.43121
 363.38; 7934.587;  301.613;20815.514; 0.42935
 363.98; 7998.798;  289.171;20943.715; 0.42798
 364.57; 8086.567;  277.744;21176.149; 0.42753
 365.16; 8168.235;  288.573;21351.502; 0.42701
 365.76; 8272.680;  293.720;21537.287; 0.42528
 366.35; 8338.948;  294.920;21731.542; 0.42568
 366.94; 8379.878;  286.459;21913.791; 0.42687
 367.53; 8395.883;  286.426;22067.466; 0.42909
 368.13; 8507.565;  291.994;22246.489; 0.42689
 368.72; 8543.699;  285.482;22413.295; 0.42805
 369.31; 8680.431;  292.281;22597.374; 0.42474
 369.91; 8687.927;  283.382;22746.877; 0.42696
 370.50; 8723.128;  291.699;22820.059; 0.42683
 371.09; 8751.663;  278.017;22946.909; 0.42736
 371.68; 8804.415;  286.967;23106.324; 0.42799
 372.28; 8944.002;  294.984;23340.584; 0.42562
 372.87; 8997.250;  297.367;23443.502; 0.42497
 373.46; 9079.681;  297.723;23614.255; 0.42407
 374.05; 9130.593;  287.889;23758.158; 0.42393
 374.65; 9177.263;  290.440;23950.173; 0.42526
 375.24; 9196.771;  272.918;24146.349; 0.42736
 375.83; 9246.120;  275.848;24331.370; 0.42841
 376.42; 9355.631;  273.516;24515.563; 0.42638
 377.02; 9486.569;  293.907;24527.502; 0.42098
 377.61; 9610.406;  288.112;24762.668; 0.41919
 378.20; 9696.532;  297.747;24944.118; 0.41868
 378.79; 9750.634;  297.015;25086.217; 0.41866
 379.38; 9773.201;  282.191;25204.109; 0.41927
 379.98; 9843.237;  267.243;25344.469; 0.41810
 380.57; 9934.498;  272.112;25606.751; 0.41863
 381.16;10044.862;  291.609;25727.129; 0.41629
 381.75;10130.218;  289.589;25767.151; 0.41313
 382.35;10215.668;  283.703;25937.612; 0.41212
 382.94;10346.758;  271.231;26182.039; 0.41021
 383.53;10476.148;  279.541;26558.760; 0.41116
 384.12;10599.359;  269.432;26865.627; 0.41072
 384.71;10629.755;  284.069;27028.687; 0.41248
 385.31;10724.944;  287.699;27353.893; 0.41384
 385.90;10801.151;  299.731;27598.110; 0.41489
 386.49;10978.707;  283.306;27919.987; 0.41229
 387.08;11063.997;  296.763;28085.602; 0.41177
 387.67;11244.990;  302.047;28384.267; 0.40930
 388.26;11372.474;  312.463;28670.094; 0.40891
 388.86;11548.152;  297.866;29041.131; 0.40737
 389.45;11669.981;  285.685;29324.329; 0.40667
 390.04;11808.816;  279.860;29566.863; 0.40488
 390.63;11898.939;  284.795;29878.048; 0.40621
 391.22;12047.303;  294.422;30097.179; 0.40411
 391.81;12148.453;  303.408;30368.117; 0.40452
 392.41;12303.162;  324.211;30517.642; 0.40149
 393.00;12379.285;  349.022;30747.606; 0.40258
 393.59;12485.030;  379.676;31111.212; 0.40461
 394.18;12678.793;  399.780;31505.223; 0.40367
 394.77;12845.533;  433.703;31930.599; 0.40443
 395.36;13056.948;  473.557;32244.356; 0.40223
 395.95;13163.247;  524.323;32561.017; 0.40394
 396.55;13336.296;  566.236;32856.406; 0.40288
 397.14;13477.641;  594.577;33298.717; 0.40458
 397.73;13685.652;  601.786;33627.642; 0.40212
 398.32;13832.925;  612.294;34204.404; 0.40499
 398.91;14082.471;  621.039;34614.988; 0.40231
 399.50;14291.613;  632.059;35200.379; 0.40324
 400.09;14595.724;  605.452;35675.306; 0.39911
 400.68;14899.109;  582.293;36366.134; 0.39784
 401.27;15187.874;  548.561;37014.694; 0.39637
 401.87;15481.340;  525.771;37604.957; 0.39433
 402.46;15738.782;  501.053;38119.893; 0.39249
 403.05;16036.912;  484.389;38675.942; 0.39017
 403.64;16236.771;  490.521;39240.769; 0.39110
 404.23;16562.444;  484.797;39841.080; 0.38879
 404.82;16780.067;  502.588;40438.695; 0.38978
 405.41;17105.206;  491.629;41140.816; 0.38859
 406.00;17357.747;  497.890;41752.976; 0.38862
 406.59;17674.642;  479.966;42383.807; 0.38686
 407.18;17978.267;  482.149;42943.385; 0.38505
 407.77;18144.923;  466.520;43500.038; 0.38636
 408.37;18362.878;  484.641;43973.019; 0.38605
 408.96;18561.725;  491.806;44465.898; 0.38624
 409.55;18828.449;  504.476;44970.283; 0.38501
 410.14;19052.988;  481.626;45459.452; 0.38415
 410.73;19324.678;  490.299;45905.805; 0.38225
 411.32;19578.619;  492.855;46441.730; 0.38157
 411.91;19906.807;  505.687;47060.216; 0.38014
 412.50;20074.245;  480.732;47624.639; 0.38131
 413.09;20289.041;  484.505;48110.411; 0.38108
 413.68;20449.903;  482.467;48573.257; 0.38174
 414.27;20704.564;  487.472;48936.919; 0.37957
 414.86;20902.627;  462.470;49236.309; 0.37770
 415.45;21063.084;  452.555;49687.411; 0.37818
 416.04;21157.427;  462.743;50083.734; 0.37981
 416.63;21348.636;  468.551;50542.275; 0.37988
 417.22;21448.716;  461.867;50754.683; 0.37956
 417.81;21616.521;  462.159;51068.477; 0.37880
 418.40;21617.726;  476.694;51393.675; 0.38174
 418.99;21694.913;  477.832;51737.830; 0.38309
 419.58;21801.829;  462.218;51969.382; 0.38268
 420.17;21985.848;  452.952;52248.392; 0.38119
 420.76;22102.968;  458.593;52499.836; 0.38100
 421.35;22185.234;  472.988;53005.769; 0.38373
 421.94;22116.969;  474.287;53203.501; 0.38674
 422.53;22175.446;  469.601;53402.299; 0.38715
 423.12;22266.653;  471.552;53493.823; 0.38610
 423.71;22425.708;  463.366;53670.857; 0.38429
 424.30;22505.056;  471.573;53819.883; 0.38404
 424.89;22468.860;  477.611;53888.037; 0.38538
 425.48;22442.871;  477.854;53974.356; 0.38659
 426.07;22275.572;  465.438;53940.695; 0.38949
 426.66;22220.400;  460.097;54040.507; 0.39134
 427.25;22141.675;  453.014;53995.096; 0.39246
 427.84;22144.972;  450.549;53912.043; 0.39169
 428.43;22096.374;  452.848;53711.442; 0.39106
 429.02;22103.488;  457.772;53797.552; 0.39168
 429.61;22090.729;  448.720;53826.107; 0.39206
 430.20;21953.410;  425.820;53758.443; 0.39400
 430.79;21741.212;  437.001;53531.580; 0.39658
 431.38;21617.852;  442.471;53315.543; 0.39740
 431.97;21473.760;  451.391;53001.434; 0.39789
 432.55;21299.669;  445.807;52690.011; 0.39885
 433.14;21152.404;  441.412;52704.411; 0.40199
 433.73;21043.069;  432.971;52655.054; 0.40377
 434.32;20875.300;  424.624;52606.263; 0.40681
 434.91;20653.774;  423.161;52233.737; 0.40841
 435.50;20394.578;  418.064;51971.869; 0.41174
 436.09;20207.360;  418.432;51687.970; 0.41344
 436.68;20049.041;  422.559;51624.303; 0.41644
 437.27;19977.875;  439.214;51661.122; 0.41856
 437.86;19936.663;  433.576;51508.561; 0.41810
 438.45;19760.092;  436.794;51330.326; 0.42058
 439.04;19583.403;  419.148;51043.637; 0.42187
 439.62;19349.419;  412.025;51000.963; 0.42674
 440.21;19181.513;  413.441;50885.373; 0.42963
 440.80;19042.677;  430.263;51024.538; 0.43430
 441.39;18875.624;  449.560;51081.161; 0.43899
 441.98;18686.768;  447.874;51020.625; 0.44292
 442.57;18465.723;  436.530;50797.219; 0.44612
 443.16;18361.432;  425.660;50702.578; 0.44765
 443.75;18287.447;  431.481;50788.909; 0.45028
 444.33;18179.255;  435.018;50969.383; 0.45453
 444.92;18007.554;  440.355;50892.685; 0.45818
 445.51;17877.881;  417.614;50850.986; 0.46067
 446.10;17842.129;  410.612;51056.876; 0.46321
 446.69;17776.143;  404.712;51275.545; 0.46663
 447.28;17745.998;  420.929;51457.726; 0.46921
 447.87;17586.327;  412.657;51329.383; 0.47200
 448.45;17446.368;  413.036;51412.748; 0.47627
 449.04;17281.273;  390.874;51445.980; 0.48040
 449.63;17189.925;  386.972;51646.289; 0.48439
 450.22;17052.440;  381.501;51835.467; 0.48946
 450.81;16931.192;  386.090;52100.884; 0.49495
 451.40;16731.443;  391.666;52058.120; 0.49996
 451.98;16676.075;  398.229;52052.065; 0.50151
 452.57;16497.482;  403.856;52211.469; 0.50774
 453.16;16442.369;  401.626;52273.023; 0.50970
 453.75;16303.726;  391.994;52359.708; 0.51402
 454.34;16226.712;  388.814;52215.013; 0.51485
 454.93;16135.076;  395.232;52494.699; 0.51983
 455.51;16025.270;  391.805;52615.216; 0.52381
 456.10;15900.176;  402.670;52907.445; 0.52994
 456.69;15794.448;  396.116;53041.712; 0.53389
 457.28;15751.274;  403.304;53288.203; 0.53728
 457.87;15719.744;  395.902;53216.666; 0.53744
 458.45;15524.794;  396.108;53304.691; 0.54372
 459.04;15369.833;  388.965;53401.373; 0.54884
 459.63;15247.616;  395.666;53676.141; 0.55478
 460.22;15170.279;  396.420;53639.128; 0.55677
 460.80;15060.293;  400.600;53692.823; 0.56054
 461.39;15035.359;  392.483;53895.895; 0.56276
 461.98;15096.268;  393.792;54364.115; 0.56476
 462.57;15162.788;  398.874;54782.941; 0.56627
 463.16;15130.135;  397.668;55197.607; 0.57050
 463.74;15049.406;  387.726;55673.212; 0.57643
 464.33;15086.631;  376.102;56213.777; 0.57930
 464.92;15054.912;  370.427;56547.398; 0.58270
 465.51;15050.563;  357.831;56911.710; 0.58536
 466.09;15008.766;  358.204;57352.888; 0.58998
 466.68;15082.335;  361.518;57898.436; 0.59201
 467.27;15134.205;  372.331;58292.638; 0.59369
 467.86;15095.635;  368.243;58560.733; 0.59674
 468.44;15069.828;  363.094;58919.922; 0.60006
 469.03;15103.727;  361.882;59322.152; 0.60201
 469.62;15184.962;  367.807;59788.037; 0.60317
 470.20;15151.609;  365.300;60231.337; 0.60732
 470.79;15120.801;  374.762;60677.863; 0.61166
 471.38;15080.773;  358.816;61146.166; 0.61585
 471.97;15100.340;  359.020;61564.389; 0.61825
 472.55;15036.635;  350.111;61933.679; 0.62255
 473.14;15023.562;  362.234;62406.602; 0.62653
 473.73;15067.849;  355.473;62971.535; 0.62900
 474.31;15179.447;  347.428;63489.444; 0.62912
 474.90;15218.925;  350.797;63899.238; 0.63085
 475.49;15205.929;  352.737;64160.914; 0.63306
 476.07;15140.328;  357.870;64473.326; 0.63722
 476.66;15211.185;  347.892;64752.829; 0.63680
 477.25;15205.709;  340.581;65000.332; 0.63847
 477.84;15258.241;  352.761;65155.193; 0.63825
 478.42;15141.333;  344.733;65155.945; 0.64149
 479.01;15049.390;  344.681;65156.001; 0.64419
 479.60;15088.571;  330.210;65156.511; 0.64271
 480.18;15091.665;  334.265;65158.257; 0.64273
 480.77;15110.899;  342.135;65159.480; 0.64235
 481.35;14996.791;  347.900;65159.373; 0.64585
 481.94;14996.604;  344.738;65159.188; 0.64578
 482.53;14996.679;  335.059;65159.923; 0.64556
 483.11;14917.472;  332.000;65160.709; 0.64785
 483.70;14815.490;  318.067;65161.719; 0.65058
 484.29;14738.109;  316.585;65163.324; 0.65288
 484.87;14741.337;  306.461;65164.542; 0.65255
 485.46;14660.065;  315.710;65164.272; 0.65522
 486.05;14580.701;  319.958;65162.920; 0.65772
 486.63;14494.367;  321.237;65162.258; 0.66038
 487.22;14410.357;  317.302;65162.909; 0.66288
 487.81;14388.162;  323.288;65164.368; 0.66371
 488.39;14269.269;  331.856;65164.474; 0.66761
 488.98;14199.522;  337.207;65163.733; 0.66992
 489.56;14069.592;  317.228;65164.794; 0.67352
 490.15;13930.849;  310.772;65166.371; 0.67777
 490.74;13782.608;  302.771;65167.454; 0.68232
 491.32;13633.945;  305.937;65168.774; 0.68723
 491.91;13502.241;  316.111;64974.057; 0.69050
 492.49;13353.828;  317.823;64712.314; 0.69370
 493.08;13141.307;  332.939;64167.133; 0.69756
 493.67;12944.391;  325.500;63724.219; 0.70106
 494.25;12803.025;  343.920;63105.848; 0.70221
 494.84;12607.602;  335.724;62474.087; 0.70445
 495.42;12487.608;  338.386;61959.759; 0.70518
 496.01;12300.835;  319.873;61399.648; 0.70741
 496.59;12168.305;  310.443;60754.114; 0.70734
 497.18;12079.672;  311.106;60078.479; 0.70574
 497.77;11896.506;  311.733;59331.632; 0.70711
 498.35;11848.010;  326.966;58841.796; 0.70577
 498.94;11663.094;  324.499;58030.218; 0.70666
 499.52;11547.400;  324.914;57567.186; 0.70763
 500.11;11339.826;  311.275;56906.600; 0.71026
 500.69;11237.136;  304.601;56449.246; 0.71059
 501.28;11123.266;  315.149;55764.708; 0.71015
 501.86;11044.023;  317.653;55155.772; 0.70863
 502.45;10934.632;  338.264;54632.693; 0.70960
 503.03;10902.925;  328.939;54106.656; 0.70636
 503.62;10867.013;  339.385;53665.090; 0.70461
 504.20;10814.562;  326.215;53123.968; 0.70191
 504.79;10739.083;  326.766;52666.148; 0.70128
 505.37;10682.798;  326.582;52358.543; 0.70107
 505.96;10660.016;  332.269;51859.105; 0.69803
 506.55;10746.754;  327.706;51491.158; 0.69113
 507.13;10830.678;  315.837;51254.709; 0.68525
 507.72;10890.036;  312.954;51138.387; 0.68172
 508.30;10961.271;  319.265;50944.634; 0.67734
 508.89;11013.786;  316.460;50626.145; 0.67238
 509.47;11193.369;  308.593;50383.056; 0.66280
 510.05;11283.520;  311.037;50305.214; 0.65861
 510.64;11525.508;  312.992;50205.541; 0.64833
 511.22;11596.116;  326.961;50242.492; 0.64634
 511.81;11833.809;  323.186;50282.527; 0.63752
 512.39;11953.894;  329.747;50266.280; 0.63306
 512.98;12123.731;  310.647;50213.110; 0.62576
 513.56;12217.588;  306.947;50200.284; 0.62211
 514.15;12403.821;  297.484;50225.841; 0.61533
 514.73;12657.652;  293.306;50310.339; 0.60695
 515.32;12934.357;  298.909;50412.714; 0.59837
 515.90;13155.450;  306.909;50529.464; 0.59204
 516.49;13330.927;  321.223;50576.262; 0.58691
 517.07;13476.810;  323.415;50501.804; 0.58148
 517.66;13622.630;  325.663;50468.951; 0.57646
 518.24;13874.788;  330.491;50581.443; 0.56939
 518.82;14095.793;  322.791;50433.118; 0.56090
 519.41;14301.592;  321.449;50483.238; 0.55486
 519.99;14550.980;  304.901;50520.942; 0.54715
 520.58;14872.891;  313.039;50964.514; 0.54144
 521.16;15291.230;  316.114;51139.212; 0.53069
 521.75;15586.174;  315.579;51354.849; 0.52405
 522.33;15921.838;  314.722;51552.832; 0.51627
 522.91;16165.141;  303.280;51724.449; 0.51079
 523.50;16442.786;  304.661;51708.091; 0.50314
 524.08;16820.889;  292.957;51816.521; 0.49379
 524.67;17165.201;  296.699;52029.160; 0.48669
 525.25;17553.681;  294.898;52244.306; 0.47857
 525.83;17790.388;  300.195;52281.679; 0.47305
 526.42;18083.033;  299.604;52255.985; 0.46562
 527.00;18336.697;  297.414;52315.968; 0.45994
 527.59;18573.461;  293.742;52194.390; 0.45320
 528.17;18867.536;  296.702;52169.461; 0.44611
 528.75;19212.858;  314.407;52237.781; 0.43894
 529.34;19481.948;  317.963;52410.206; 0.43429
 529.92;19644.772;  322.096;52599.701; 0.43225
 530.50;19823.830;  308.099;52577.086; 0.42786
 531.09;20131.000;  310.277;52580.588; 0.42114
 531.67;20482.145;  319.699;52493.409; 0.41291
 532.25;20660.361;  331.224;52474.618; 0.40908
 532.84;20858.167;  319.265;52286.406; 0.40315
 533.42;21009.218;  303.579;52069.121; 0.39795
 534.00;21261.042;  296.379;51800.283; 0.39035
 534.59;21372.448;  306.923;51692.027; 0.38726
 535.17;21523.387;  307.396;51484.292; 0.38241
 535.75;21689.126;  311.833;51399.345; 0.37836
 536.34;21906.758;  327.170;51106.314; 0.37164
 536.92;22003.456;  323.362;50970.357; 0.36849
 537.50;22133.136;  320.767;50555.361; 0.36230
 538.09;22148.719;  304.234;50224.272; 0.35893
 538.67;22237.805;  307.957;49849.711; 0.35394
 539.25;22220.329;  292.004;49517.578; 0.35119
 539.84;22392.192;  298.382;49195.084; 0.34501
 540.42;22532.209;  287.620;48747.408; 0.33816
 541.00;22662.745;  304.712;48328.615; 0.33202
 541.59;22716.935;  293.453;47996.146; 0.32784
 542.17;22844.440;  303.713;47681.974; 0.32261
 542.75;22915.228;  301.687;47449.085; 0.31909
 543.33;22934.904;  321.928;47035.436; 0.31508
 543.92;22999.263;  322.791;46647.473; 0.31024
 544.50;23132.128;  319.637;46212.001; 0.30357
 545.08;23265.537;  303.653;45900.067; 0.29792
 545.67;23279.663;  304.594;45544.519; 0.29427
 546.25;23360.075;  306.855;45243.598; 0.28987
 546.83;23400.036;  305.919;44881.223; 0.28559
 547.41;23466.443;  307.185;44485.963; 0.28049
 548.00;23477.562;  304.048;44073.416; 0.27618
 548.58;23526.829;  293.554;43651.340; 0.27096
 549.16;23575.462;  273.252;43462.973; 0.26798
 549.74;23691.496;  276.221;43125.006; 0.26244
 550.33;23806.188;  287.338;42789.017; 0.25699
 550.91;23914.645;  287.502;42328.145; 0.25026
 551.49;23946.218;  275.114;42084.067; 0.24705
 552.07;23974.162;  281.527;41894.675; 0.24462
 552.66;24107.413;  296.715;41696.915; 0.24023
 553.24;24198.967;  301.874;41407.799; 0.23556
 553.82;24312.235;  287.046;41262.389; 0.23186
 554.40;24368.829;  287.502;41018.645; 0.22825
 554.98;24540.036;  286.839;40927.197; 0.22419
 555.57;24758.271;  295.511;40724.442; 0.21819
 556.15;24856.357;  295.794;40729.857; 0.21651
 556.73;24937.364;  289.872;40584.856; 0.21348
 557.31;25035.616;  280.087;40487.094; 0.21063
 557.89;25148.758;  267.680;40402.230; 0.20765
 558.48;25258.678;  270.725;40389.487; 0.20562
 559.06;25379.832;  269.279;40492.969; 0.20463
 559.64;25735.221;  288.172;40421.363; 0.19787
 560.22;25958.348;  308.276;40298.501; 0.19287
 560.80;26162.955;  311.749;40155.433; 0.18788
 561.39;26251.675;  300.174;40123.139; 0.18597
 561.97;26533.010;  304.256;40118.465; 0.18126
 562.55;26777.136;  305.864;40159.584; 0.17769
 563.13;27108.368;  307.652;40244.814; 0.17323
 563.71;27213.545;  295.320;40343.674; 0.17254
 564.29;27299.367;  296.315;40286.513; 0.17054
 564.88;27308.565;  280.495;40218.374; 0.16957
 565.46;27466.976;  277.260;40267.767; 0.16755
 566.04;27728.784;  269.464;40338.574; 0.16412
 566.62;28011.991;  292.162;40520.457; 0.16174
 567.20;28305.211;  292.265;40647.678; 0.15854
 567.78;28586.617;  300.170;40851.754; 0.15643
 568.36;28800.617;  300.837;41002.754; 0.15477
 568.94;29011.726;  296.460;41004.189; 0.15156
 569.53;29152.732;  295.816;41099.192; 0.15045
 570.11;29356.033;  283.902;41113.488; 0.14750
 570.69;29565.463;  278.869;41248.245; 0.14579
 571.27;29701.814;  279.854;41227.262; 0.14355
 571.85;29803.441;  279.584;41295.220; 0.14278
 572.43;29874.451;  299.078;41479.213; 0.14376
 573.01;30078.442;  288.199;41566.526; 0.14165
 573.59;30296.580;  284.931;41522.011; 0.13800
 574.17;30514.864;  270.419;41423.650; 0.13376
 574.76;30694.962;  278.826;41529.098; 0.13232
 575.34;30932.527;  274.920;41725.997; 0.13100
 575.92;31100.386;  271.771;41808.186; 0.12947
 576.50;31349.702;  265.398;41828.507; 0.12617
 577.08;31485.244;  261.206;41866.048; 0.12465
 577.66;31678.899;  250.776;41875.013; 0.12203
 578.24;31765.054;  252.747;41879.155; 0.12089
 578.82;31855.477;  257.942;41897.583; 0.11985
 579.40;31966.437;  266.978;41903.210; 0.11842
 579.98;32093.522;  273.567;41841.961; 0.11606
 580.56;32275.211;  281.852;41853.319; 0.11374
 581.14;32460.058;  291.659;41917.834; 0.11194
 581.72;32650.804;  280.280;42082.244; 0.11105
 582.30;32793.038;  273.151;42074.467; 0.10904
 582.88;32934.857;  274.650;42152.288; 0.10796
 583.46;33040.047;  282.363;42189.821; 0.10698
 584.04;33250.338;  282.956;42171.457; 0.10401
 584.62;33399.364;  265.125;42197.830; 0.10228
 585.21;33594.637;  267.265;42241.428; 0.10018
 585.79;33643.226;  273.754;42392.009; 0.10112
 586.37;33841.525;  277.118;42415.309; 0.09880
 586.95;34013.027;  275.522;42455.787; 0.09700
 587.53;34243.743;  269.979;42469.819; 0.09417
 588.11;34470.509;  278.442;42585.262; 0.09249
 588.69;34526.100;  282.733;42557.865; 0.09151
 589.27;34572.376;  283.424;42506.477; 0.09040
 589.85;34570.174;  276.026;42443.602; 0.08976
 590.43;34637.513;  271.715;42599.939; 0.09050
 591.01;34802.088;  278.076;42722.853; 0.08970
 591.59;34916.178;  288.299;42936.945; 0.09048
 592.16;35088.890;  287.924;42891.657; 0.08786
 592.74;35243.621;  291.617;42886.045; 0.08588
 593.32;35307.206;  293.193;42739.948; 0.08360
 593.90;35425.230;  297.895;42708.966; 0.08183
 594.48;35484.630;  288.777;42603.037; 0.08000
 595.06;35536.391;  285.245;42684.475; 0.08018
 595.64;35613.486;  272.769;42709.242; 0.07946
 596.22;35553.051;  276.890;42757.472; 0.08071
 596.80;35630.538;  268.138;42505.619; 0.07716
 597.38;35635.816;  264.245;42457.558; 0.07659
 597.96;35745.499;  262.869;42299.911; 0.07362
 598.54;35852.991;  268.057;42320.734; 0.07253
 599.12;35844.004;  272.769;42174.074; 0.07113
 599.70;35705.550;  272.156;42133.628; 0.07240
 600.28;35550.464;  269.178;41999.881; 0.07291
 600.86;35591.828;  273.568;41898.236; 0.07135
 601.44;35671.245;  279.130;41816.989; 0.06954
 602.02;35629.240;  273.135;41601.984; 0.06779
 602.59;35674.428;  269.019;41487.164; 0.06602
 603.17;35619.911;  254.435;41427.991; 0.06604
 603.75;35648.942;  264.600;41407.036; 0.06548
 604.33;35532.941;  268.544;41269.041; 0.06545
 604.91;35554.212;  272.574;41056.648; 0.06294
 605.49;35488.637;  271.546;40985.067; 0.06299
 606.07;35348.132;  254.900;40828.877; 0.06302
 606.65;35284.957;  260.422;40696.701; 0.06240
 607.23;35119.388;  264.441;40448.820; 0.06179
 607.80;35022.607;  277.156;40221.379; 0.06056
 608.38;34955.379;  277.256;40025.464; 0.05926
 608.96;34927.590;  285.786;39921.000; 0.05848
 609.54;34825.298;  288.246;39743.725; 0.05782
 610.12;34555.615;  283.928;39528.375; 0.05884
 610.70;34366.529;  273.259;39095.265; 0.05641
 611.28;34181.994;  259.195;38813.390; 0.05558
 611.85;33942.832;  265.841;38433.913; 0.05437
 612.43;33705.203;  260.695;38304.961; 0.05596
 613.01;33522.074;  263.202;38019.161; 0.05508
 613.59;33325.363;  249.299;37795.112; 0.05505
 614.17;33248.994;  240.914;37668.085; 0.05457
 614.75;33083.112;  222.778;37521.205; 0.05502
 615.32;32992.690;  209.277;37291.775; 0.05351
 615.90;32789.479;  219.080;36866.572; 0.05122
 616.48;32577.558;  232.952;36658.988; 0.05161
 617.06;32211.728;  255.157;36308.488; 0.05239
 617.64;31884.383;  246.140;36072.812; 0.05399
 618.22;31592.088;  241.049;35666.522; 0.05306
 618.79;31482.187;  228.178;35515.632; 0.05271
 619.37;31306.904;  227.104;35180.352; 0.05101
 619.95;31040.174;  231.387;34894.600; 0.05119
 620.53;30775.407;  218.869;34491.494; 0.04984
 621.11;30522.533;  206.529;34156.975; 0.04917
 621.68;30385.255;  201.116;33920.700; 0.04810
 622.26;30274.010;  202.843;33803.106; 0.04819
 622.84;30049.615;  212.594;33643.042; 0.04939
 623.42;29860.642;  214.208;33340.072; 0.04819
 623.99;29707.061;  232.130;33128.823; 0.04770
 624.57;29581.110;  239.695;32874.211; 0.04620
 625.15;29432.177;  249.244;32723.283; 0.04641
 625.73;29203.007;  235.066;32483.448; 0.04659
 626.30;29034.020;  228.444;32290.122; 0.04651
 626.88;28783.835;  228.031;32032.596; 0.04680
 627.46;28594.346;  230.061;31766.787; 0.04604
 628.04;28427.105;  242.419;31549.234; 0.04563
 628.61;28330.308;  241.899;31249.103; 0.04294
 629.19;28158.963;  244.829;31015.066; 0.04231
 629.77;27866.325;  231.831;30736.758; 0.04292
 630.35;27633.418;  234.217;30562.869; 0.04412
 630.92;27502.794;  232.092;30375.921; 0.04350
 631.50;27426.340;  220.757;30199.145; 0.04215
 632.08;27186.537;  206.521;29949.680; 0.04234
 632.66;26853.657;  196.801;29744.460; 0.04471
 633.23;26688.288;  216.776;29426.430; 0.04275
 633.81;26539.549;  225.566;29138.020; 0.04090
 634.39;26383.632;  220.298;28844.754; 0.03904
 634.96;26140.338;  221.956;28624.791; 0.03975
 635.54;26011.758;  216.680;28606.896; 0.04163
 636.12;25891.482;  214.735;28334.976; 0.03948
 636.69;25768.439;  204.526;28222.591; 0.03981
 637.27;25532.029;  199.403;27913.834; 0.03903
 637.85;25314.262;  217.219;27696.062; 0.03938
 638.42;25060.855;  206.286;27392.989; 0.03895
 639.00;24864.977;  223.367;27259.457; 0.04027
 639.58;24596.455;  209.789;26981.612; 0.04053
 640.15;24388.984;  222.891;26790.445; 0.04115
 640.73;24216.099;  204.119;26492.226; 0.03933
 641.31;24265.547;  216.013;26471.006; 0.03811
 641.88;24231.996;  210.908;26285.787; 0.03563
 642.46;24194.444;  226.803;26132.901; 0.03378
 643.04;23903.559;  214.697;25934.349; 0.03572
 643.61;23723.674;  223.925;25817.463; 0.03707
 644.19;23538.456;  209.153;25659.577; 0.03779
 644.77;23485.904;  224.048;25468.358; 0.03552
 645.34;23325.353;  211.943;25293.805; 0.03550
 645.92;23117.801;  214.504;25070.586; 0.03553
 646.49;22990.583;  218.399;24938.033; 0.03564
 647.07;22810.031;  220.293;24745.814; 0.03571
 647.65;22717.813;  224.188;24564.928; 0.03427
 648.22;22592.262;  218.082;24391.042; 0.03358
 648.80;22623.710;  227.310;24368.156; 0.03257
 649.37;22639.492;  227.872;24339.937; 0.03176
 649.95;22525.940;  227.433;24242.051; 0.03220
 650.53;22298.055;  209.328;24121.165; 0.03444
 651.10;22140.837;  214.222;24054.279; 0.03634
 651.68;21959.285;  211.450;24020.060; 0.03932
 652.25;21973.067;  221.012;23899.174; 0.03685
 652.83;21888.182;  211.573;23700.955; 0.03488
 653.41;21890.297;  208.468;23524.069; 0.03155
 653.98;21845.746;  212.362;23340.850; 0.02902
 654.56;21726.527;  211.590;23307.630; 0.03080
 655.13;21635.976;  208.818;23285.744; 0.03221
 655.71;21519.091;  207.379;23284.525; 0.03456
 656.28;21436.872;  194.941;23185.639; 0.03436
 656.86;21390.654;  188.169;22962.753; 0.03106
 657.43;21395.103;  190.397;22872.868; 0.02926
 658.01;21470.551;  212.958;22793.315; 0.02622
 658.58;21435.666;  207.519;22876.096; 0.02851
 659.16;21305.114;  211.747;22798.876; 0.02972
 659.74;21163.896;  196.309;22777.324; 0.03219
 660.31;21108.011;  204.203;22714.438; 0.03215
 660.89;21095.126;  198.098;22687.885; 0.03190
 661.46;21119.241;  206.659;22545.999; 0.02866
 662.04;21013.356;  208.554;22516.780; 0.03030
 662.61;20983.472;  207.448;22500.894; 0.03061
 663.19;20965.587;  206.676;22626.342; 0.03342
 663.76;21036.035;  209.571;22600.456; 0.03146
 664.34;21010.150;  211.132;22526.237; 0.03056
 664.91;21028.598;  214.027;22413.684; 0.02798
 665.49;21054.380;  216.922;22441.798; 0.02799
 666.06;21199.495;  213.150;22513.246; 0.02637
 666.64;21235.277;  212.044;22555.693; 0.02645
 667.21;21294.392;  216.606;22500.140; 0.02416
 667.79;21235.174;  204.167;22400.588; 0.02342
 668.36;21222.956;  201.395;22402.702; 0.02371
 668.93;21268.737;  202.290;22421.149; 0.02313
 669.51;21151.186;  198.184;22426.263; 0.02566
 670.08;21014.634;  192.412;22387.044; 0.02772
 670.66;20875.749;  189.307;22273.825; 0.02840
 671.23;21014.531;  213.201;22361.606; 0.02725
 671.81;21146.979;  219.763;22403.720; 0.02533
 672.38;21231.761;  224.324;22501.167; 0.02548
 672.96;21185.543;  213.552;22510.281; 0.02660
 673.53;21108.658;  213.113;22482.395; 0.02765
 674.10;21024.773;  213.008;22524.843; 0.03023
 674.68;21018.888;  228.236;22505.290; 0.02999
 675.25;21083.336;  221.131;22417.404; 0.02692
 675.83;21046.785;  215.692;22370.185; 0.02675
 676.40;21057.233;  203.253;22300.299; 0.02515
 676.98;21054.682;  209.148;22323.413; 0.02566
 677.55;21133.797;  210.043;22281.527; 0.02319
 678.12;21131.245;  223.937;22260.975; 0.02286
 678.70;21025.693;  221.832;22236.089; 0.02456
 679.27;20946.475;  229.060;22163.870; 0.02480
 679.85;20897.924;  216.621;22124.984; 0.02503
 680.42;20905.039;  216.516;22133.431; 0.02505
 680.99;21000.487;  192.744;22099.212; 0.02235
 681.57;20946.602;  198.305;22028.659; 0.02208
 682.14;20917.717;  205.866;21848.773; 0.01910
 682.71;20836.166;  210.761;21795.554; 0.01975
 683.29;20780.281;  200.656;21706.668; 0.01912
 683.86;20623.396;  185.884;21546.116; 0.01918
 684.43;20361.177;  198.112;21362.230; 0.02104
 685.01;20221.626;  197.006;21197.011; 0.02066
 685.58;20168.074;  206.234;21272.458; 0.02339
 686.16;20286.189;  206.462;21269.239; 0.02076
 686.73;20320.304;  215.023;21397.686; 0.02267
 687.30;20338.753;  207.585;21388.467; 0.02208
 687.88;20288.868;  217.479;21321.914; 0.02180
 688.45;20204.316;  210.707;21118.362; 0.01941
 689.02;20078.098;  213.602;21022.142; 0.02016
 689.60;19974.546;  190.497;20889.257; 0.01963
 690.17;19912.995;  199.391;20926.704; 0.02178
 690.74;19872.110;  189.619;20805.485; 0.02012
 691.31;19838.558;  204.181;20824.932; 0.02129
 691.89;19751.007;  191.742;20754.713; 0.02173
 692.46;19702.455;  212.637;20700.494; 0.02169
 693.03;19633.237;  229.198;20611.941; 0.02137
 693.61;19565.352;  234.759;20426.722; 0.01893
 694.18;19544.134;  237.320;20424.503; 0.01937
 694.75;19484.915;  206.882;20414.950; 0.02046
 695.32;19446.030;  208.110;20458.064; 0.02227
 695.90;19413.479;  203.004;20312.512; 0.01986
 696.47;19339.594;  203.899;20210.626; 0.01933
 697.04;19354.376;  214.460;20060.073; 0.01572
 697.62;19296.824;  213.355;20039.187; 0.01657
 698.19;19232.939;  229.250;19951.301; 0.01611
 698.76;19113.387;  211.144;19960.082; 0.01903
 699.33;19013.169;  210.706;19883.196; 0.01964
 699.91;18939.284;  196.600;19795.977; 0.01941
 700.48;18880.733;  206.162;19674.091; 0.01807
 701.05;18754.181;  208.056;19645.538; 0.02039
 701.62;18678.296;  232.951;19536.652; 0.01975
 702.20;18592.078;  235.179;19463.767; 0.02015
 702.77;18579.193;  232.073;19314.881; 0.01707
 703.34;18483.975;  217.301;19303.995; 0.01907
 703.91;18413.423;  214.196;19161.775; 0.01750
 704.48;18362.871;  220.091;19054.223; 0.01624
 705.06;18422.653;  212.652;18964.004; 0.01272
 705.63;18387.102;  221.213;18940.118; 0.01302
 706.20;18275.550;  214.441;18934.565; 0.01556
 706.77;18077.665;  221.336;18864.679; 0.01873
 707.34;18034.447;  215.564;18821.793; 0.01878
 707.92;17976.895;  205.792;18710.907; 0.01758
 708.49;17951.010;  193.353;18575.022; 0.01500
 709.06;17799.125;  193.248;18466.136; 0.01615
 709.63;17760.907;  194.476;18431.916; 0.01628
 710.20;17702.689;  191.037;18446.697; 0.01807
 710.77;17779.471;  187.932;18338.145; 0.01358
 711.35;17801.919;  185.826;18305.592; 0.01224
 711.92;17806.701;  205.721;18271.706; 0.01132
 712.49;17718.149;  207.616;18372.487; 0.01593
 713.06;17694.597;  215.844;18405.934; 0.01732
 713.63;17749.046;  209.405;18498.382; 0.01817
 714.20;17827.161;  212.300;18556.829; 0.01763
 714.78;17806.276;  209.528;18487.277; 0.01649
 715.35;17717.391;  205.756;18407.724; 0.01679
 715.92;17683.506;  207.317;18351.838; 0.01630
 716.49;17663.288;  222.545;18343.285; 0.01661
 717.06;17719.070;  226.106;18273.400; 0.01355
 717.63;17682.851;  217.334;18198.847; 0.01264
 718.20;17645.300;  210.895;18175.294; 0.01301
 718.77;17574.415;  224.790;18170.075; 0.01466
 719.35;17550.863;  226.351;18153.189; 0.01484
 719.92;17553.312;  211.913;18038.303; 0.01198
 720.49;17494.760;  197.474;17879.084; 0.00954
 721.06;17384.208;  177.369;17774.532; 0.00974
 721.63;17300.990;  190.930;17799.979; 0.01248
 722.20;17275.772;  195.825;17861.426; 0.01464
 722.77;17224.887;  203.386;17825.540; 0.01506
 723.34;17249.669;  196.947;17821.321; 0.01432
 723.91;17180.450;  205.509;17813.102; 0.01589
 724.48;17231.565;  222.070;17777.883; 0.01373
 725.05;17141.014;  212.964;17617.997; 0.01207
 725.62;17122.462;  195.192;17490.778; 0.00935
 726.20;17128.911;  186.754;17461.892; 0.00845
 726.77;17035.692;  192.982;17446.339; 0.01046
 727.34;17047.141;  199.210;17412.787; 0.00932
 727.91;16928.589;  209.104;17361.567; 0.01110
 728.48;16990.038;  214.999;17354.015; 0.00932
 729.05;16992.819;  215.560;17353.795; 0.00925
 729.62;17026.268;  192.788;17320.910; 0.00754
 730.19;16954.716;  185.683;17297.024; 0.00878
 730.76;16928.831;  188.578;17324.138; 0.01014
 731.33;16884.280;  211.472;17306.252; 0.01085
 731.90;16940.395;  215.034;17274.033; 0.00858
 732.47;16785.176;  206.261;17242.147; 0.01181
 733.04;16774.958;  191.156;17245.594; 0.01215
 733.61;16676.740;  168.051;17256.042; 0.01498
 734.18;16739.855;  173.945;17191.156; 0.01167
 734.75;16618.637;  184.507;17077.270; 0.01195
 735.32;16657.085;  211.401;16955.384; 0.00781
 735.89;16587.867;  203.963;16851.831; 0.00694
 736.46;16547.982;  212.191;16734.945; 0.00494
 737.03;16382.764;  203.085;16674.393; 0.00776
 737.60;16271.545;  203.647;16580.840; 0.00828
 738.17;16199.660;  173.208;16558.621; 0.00962
 738.74;16053.109;  184.103;16523.735; 0.01269
 739.31;15998.557;  185.331;16430.849; 0.01171
 739.88;15914.006;  195.225;16300.630; 0.01055
 740.45;15942.454;  176.120;16234.411; 0.00797
 741.02;15954.569;  174.348;16293.858; 0.00924
 741.59;15979.351;  171.909;16337.305; 0.00972
 742.15;15976.799;  177.804;16325.753; 0.00949
 742.72;15955.914;  185.365;16376.867; 0.01144
 743.29;16002.029;  187.593;16351.648; 0.00950
 743.86;15992.144;  195.154;16298.095; 0.00833
 744.43;15950.593;  197.049;16220.543; 0.00738
 745.00;15860.041;  201.277;16240.323; 0.01042
 745.57;15884.490;  209.172;16261.771; 0.01033
 746.14;15873.605;  201.733;16198.552; 0.00891
 746.71;15898.053;  208.294;16179.666; 0.00773
 747.28;15887.835;  196.522;16170.446; 0.00775
 747.85;15891.950;  172.417;16124.227; 0.00637
 748.42;15891.065;  173.645;16103.675; 0.00584
 748.98;15816.513;  177.206;16075.455; 0.00713
 749.55;15744.962;  197.767;16011.569; 0.00738
 750.12;15643.077;  197.662;16015.683; 0.01035
 750.69;15667.192;  204.890;15955.131; 0.00801
 751.26;15576.640;  216.118;15910.245; 0.00933
 751.83;15549.422;  206.013;15821.026; 0.00762
 752.40;15427.537;  204.907;15769.807; 0.00966
 752.97;15417.986;  192.802;15780.587; 0.01022
 753.53;15363.434;  195.697;15773.035; 0.01157
 754.10;15386.216;  187.925;15706.815; 0.00907
 754.67;15418.664;  185.486;15666.263; 0.00700
 755.24;15364.446;  192.714;15616.044; 0.00714
 755.81;15327.228;  200.608;15583.491; 0.00730
 756.38;15308.009;  223.503;15510.272; 0.00578
 756.94;15284.124;  215.064;15482.386; 0.00568
 757.51;15175.573;  204.292;15502.833; 0.00939
 758.08;15127.354;  196.520;15545.281; 0.01199
 758.65;15149.470;  213.748;15443.728; 0.00847
 759.22;15041.918;  220.643;15351.176; 0.00897
 759.79;14889.366;  205.538;15180.623; 0.00853
 760.35;14731.148;  191.432;15130.404; 0.01176
 760.92;14647.930;  201.994;14987.518; 0.01009
 761.49;14577.712;  208.555;14849.965; 0.00815
 762.06;14489.493;  211.783;14641.079; 0.00459
 762.63;14398.608;  201.011;14500.527; 0.00311
 763.19;14250.723;  203.239;14469.641; 0.00672
 763.76;14157.838;  215.133;14423.422; 0.00819
 764.33;14043.287;  219.695;14294.202; 0.00781
 764.90;13936.069;  218.589;14107.650; 0.00540
 765.46;13769.184;  197.817;13914.097; 0.00461
 766.03;13576.632;  196.045;13749.878; 0.00559
 766.60;13452.080;  197.940;13624.992; 0.00563
 767.17;13262.862;  205.501;13465.773; 0.00670
 767.73;13207.311;  207.063;13413.220; 0.00682
 768.30;13034.092;  206.624;13205.001; 0.00575
 768.87;12903.207;  215.185;13045.782; 0.00485
 769.44;12740.322;  213.413;12836.229; 0.00331
 770.00;12574.438;  215.975;12686.677; 0.00393
 770.57;12354.886;  216.536;12525.791; 0.00607
 771.14;12091.668;  213.430;12350.238; 0.00935
 771.71;11843.449;  198.325;12122.686; 0.01029
 772.27;11669.898;  206.220;11935.800; 0.00996
 772.84;11557.013;  209.448;11715.914; 0.00604
 773.41;11446.795;  213.676;11595.695; 0.00572
 773.97;11309.910;  205.904;11440.809; 0.00509
 774.54;11143.358;  213.798;11314.923; 0.00676
 775.11;10960.473;  232.360;11227.370; 0.01067
 775.67;10879.588;  228.588;11074.818; 0.00789
 776.24;10762.370;  222.482;10902.265; 0.00573
 776.81;10710.152;  220.377;10665.712;-0.00184
 777.38;10473.600;  208.272;10484.160; 0.00045
 777.94;10325.715;  214.166;10350.941; 0.00108
 778.51;10169.164;  199.728;10214.721; 0.00198
 779.08;10074.612;  210.622;10137.835; 0.00277
 779.64; 9951.060;  201.517;10058.283; 0.00475
 780.21; 9797.509;  202.745; 9970.064; 0.00774
 780.78; 9704.957;  211.639; 9870.178; 0.00749
 781.34; 9649.406;  212.534; 9787.625; 0.00631
 781.91; 9653.521;  225.762; 9703.406; 0.00229
 782.47; 9568.969;  227.990; 9633.520; 0.00299
 783.04; 9470.417;  238.551; 9482.634; 0.00057
 783.61; 9352.199;  245.779; 9385.415; 0.00158
 784.17; 9337.981;  246.674; 9320.196;-0.00085
 784.74; 9242.096;  236.569; 9240.310;-0.00009
 785.31; 9135.211;  244.797; 9256.090; 0.00587
 785.87; 9067.326;  248.691; 9137.538; 0.00344
 786.44; 9054.108;  252.252; 9126.319; 0.00355
 787.00; 9028.556;  239.480; 9065.766; 0.00183
 787.57; 8983.338;  222.375; 9005.880; 0.00112
 788.14; 8892.120;  242.936; 8941.661; 0.00248
 788.70; 8901.568;  252.831; 8828.442;-0.00369
 789.27; 8867.683;  261.392; 8880.222; 0.00063
 789.83; 8851.465;  247.620; 8836.003;-0.00078
 790.40; 8779.580;  230.182; 8838.117; 0.00296
 790.96; 8685.362;  235.076; 8799.898; 0.00585
 791.53; 8684.810;  229.304; 8766.679; 0.00418
 792.10; 8651.258;  224.866; 8777.126; 0.00644
 792.66; 8633.040;  219.094; 8720.574; 0.00449
 793.23; 8568.489;  214.988; 8733.688; 0.00850
 793.79; 8545.270;  216.216; 8675.468; 0.00674
 794.36; 8557.719;  210.777; 8660.249; 0.00530
 794.92; 8565.834;  219.339; 8606.363; 0.00210
 795.49; 8550.949;  232.233; 8532.811;-0.00095
 796.05; 8501.397;  243.461; 8505.258; 0.00020
 796.62; 8469.179;  248.023; 8527.372; 0.00306
 797.19; 8338.627;  237.917; 8507.820; 0.00898
 797.75; 8289.409;  226.145; 8453.600; 0.00875
 798.32; 8289.191;  218.373; 8393.714; 0.00559
 798.88; 8318.639;  222.601; 8383.829; 0.00348
 799.45; 8416.754;  224.829; 8436.276; 0.00103
 800.01; 8510.203;  220.391; 8517.723; 0.00039
 800.58; 8673.651;  215.952; 8677.504; 0.00020
 801.14; 8904.100;  222.513; 8916.952; 0.00064
 801.71; 9124.881;  218.074; 9117.399;-0.00036
 802.27; 9411.330;  206.969; 9310.180;-0.00480
 802.84; 9603.445;  188.864; 9480.294;-0.00572
 803.40; 9838.560;  179.758; 9723.075;-0.00522
 803.96;10124.342;  198.986;10006.189;-0.00520
 804.53;10409.457;  210.548;10273.303;-0.00584
 805.09;10764.905;  208.442;10576.417;-0.00782
 805.66;11077.020;  200.670;10926.198;-0.00606
 806.22;11431.469;  172.898;11264.978;-0.00647
 806.79;11754.917;  185.793;11622.426;-0.00500
 807.35;12107.699;  182.354;11886.873;-0.00812
 807.92;12482.147;  214.582;12161.654;-0.01150
 808.48;12787.595;  221.810;12436.768;-0.01230
 809.05;13090.044;  217.705;12708.882;-0.01305
 809.61;13332.492;  213.933;13054.330;-0.00931
 810.17;13623.607;  218.827;13355.110;-0.00879
 810.74;13913.722;  231.055;13671.891;-0.00774
 811.30;14227.171;  226.617;13899.672;-0.01028
 811.87;14527.953;  214.511;14212.453;-0.00968
 812.43;14877.068;  214.406;14571.233;-0.00915
 812.99;15233.849;  216.967;14881.014;-0.01033
 813.56;15568.298;  221.862;15191.462;-0.01080
 814.12;15865.079;  221.090;15523.909;-0.00958
 814.69;16096.195;  216.318;15866.356;-0.00633
 815.25;16338.643;  210.213;16143.804;-0.00528
 815.81;16702.425;  200.774;16302.251;-0.01066
 816.38;17047.873;  196.335;16642.699;-0.01057
 816.94;17384.988;  193.897;16882.479;-0.01288
 817.51;17568.103;  192.791;17283.594;-0.00717
 818.07;17853.885;  201.019;17504.374;-0.00868
 818.63;18090.667;  202.247;17804.155;-0.00701
 819.20;18365.448;  201.808;18033.936;-0.00800
 819.76;18622.230;  209.370;18216.050;-0.00969
 820.32;18909.679;  216.598;18394.831;-0.01213
 820.89;18994.460;  218.159;18583.278;-0.00962
 821.45;19106.909;  193.387;18775.726;-0.00767
 822.01;19109.024;  176.615;18965.173;-0.00331
 822.58;19339.472;  180.843;19065.620;-0.00625
 823.14;19405.921;  194.404;19233.068;-0.00393
 823.70;19585.702;  202.299;19352.182;-0.00526
 824.27;19609.484;  193.194;19462.963;-0.00329
 824.83;19677.266;  215.421;19467.743;-0.00470
 825.39;19604.714;  215.649;19374.524;-0.00519
 825.95;19486.496;  221.211;19316.972;-0.00384
 826.52;19258.944;  191.105;19274.752; 0.00036
 827.08;19118.726;  189.000;19152.200; 0.00077
 827.64;18907.508;  175.895;18949.314; 0.00097
 828.21;18699.956;  175.123;18660.095;-0.00094
 828.77;18405.071;  181.351;18397.542;-0.00018
 829.33;18113.853;  183.579;18029.323;-0.00205
 829.89;17785.968;  181.807;17638.104;-0.00366
 830.46;17445.750;  185.701;17297.218;-0.00375
 831.02;17124.198;  190.596;16895.332;-0.00591
 831.58;16795.313;  201.157;16540.779;-0.00671
 832.15;16292.428;  185.052;16128.893;-0.00443
 832.71;15779.210;  188.280;15811.341; 0.00089
 833.27;15273.325;  178.841;15353.455; 0.00230
 833.83;14867.773;  169.736;14940.569; 0.00215
 834.39;14455.889;  164.297;14394.016;-0.00188
 834.96;13997.670;  162.192;13925.464;-0.00227
 835.52;13624.452;  187.086;13474.578;-0.00487
 836.08;13221.567;  188.981;13047.025;-0.00586
 836.64;12806.349;  194.876;12619.473;-0.00648
 837.21;12389.797;  198.770;12148.920;-0.00867
 837.77;12015.579;  198.332;11759.367;-0.00952
 838.33;11603.694;  206.893;11447.148;-0.00601
 838.89;11150.476;  203.121;11001.596;-0.00595
 839.45;10650.924;  205.349;10589.710;-0.00255
 840.02;10270.039;  209.910;10134.490;-0.00589
 840.58; 9872.154;  201.805; 9836.938;-0.00158
 841.14; 9491.603;  224.699; 9457.052;-0.00162
 841.70; 9091.718;  220.594; 9049.833;-0.00206
 842.26; 8720.833;  218.155; 8613.280;-0.00553
 842.82; 8302.948;  209.050; 8233.061;-0.00377
 843.39; 7884.063;  200.278; 7802.175;-0.00465
 843.95; 7474.511;  213.839; 7446.956;-0.00165
 844.51; 7139.293;  213.734; 7076.737;-0.00394
 845.07; 6824.408;  223.295; 6751.184;-0.00484
 845.63; 6574.857;  228.523; 6447.965;-0.00877
 846.19; 6375.638;  213.418; 6205.745;-0.01214
 846.75; 6167.753;  212.646; 6042.860;-0.00921
 847.32; 5958.202;  191.874; 5828.307;-0.00989
 847.88; 5723.983;  198.435; 5647.088;-0.00609
 848.44; 5514.432;  182.996; 5418.202;-0.00791
 849.00; 5373.547;  188.224; 5206.649;-0.01421
 849.56; 5247.662;  183.119; 5035.763;-0.01856
 850.12; 5121.110;  176.680; 4913.211;-0.01866
 850.68; 4975.226;  181.908; 4877.325;-0.00896
 851.24; 4928.007;  184.136; 4806.439;-0.01127
 851.80; 4919.456;  199.364; 4790.220;-0.01206
 852.37; 4875.237;  196.592; 4731.334;-0.01357
 852.93; 4798.686;  204.820; 4729.448;-0.00660
 853.49; 4769.801;  212.715; 4650.895;-0.01148
 854.05; 4735.583;  223.943; 4597.676;-0.01348
 854.61; 4678.031;  224.171; 4520.790;-0.01561
 855.17; 4674.146;  234.066; 4501.904;-0.01718
 855.73; 4688.594;  222.627; 4484.352;-0.02033
 856.29; 4737.376;  213.855; 4475.132;-0.02594
 856.85; 4722.825;  192.749; 4517.913;-0.02010
 857.41; 4774.273;  203.644; 4600.027;-0.01688
 857.97; 4821.721;  205.205; 4760.141;-0.00583
 858.53; 4960.503;  207.433; 4902.255;-0.00536
 859.09; 5126.952;  192.328; 5028.370;-0.00876
 859.65; 5394.400;  184.889; 5166.484;-0.01943
 860.21; 5629.515;  182.451; 5403.598;-0.01840
 860.77; 5946.630;  179.679; 5685.045;-0.02016
 861.33; 6248.078;  189.573; 6014.826;-0.01705
 861.89; 6625.194;  205.135; 6331.273;-0.02035
 862.45; 6946.975;  215.363; 6656.387;-0.01916
 863.01; 7277.424;  205.924; 6960.168;-0.01993
 863.57; 7612.205;  191.152; 7240.949;-0.02229
 864.13; 7931.654;  180.713; 7598.730;-0.01907
 864.69; 8230.769;  188.608; 7928.510;-0.01664
 865.25; 8576.217;  208.502; 8274.958;-0.01592
 865.81; 8900.666;  215.730; 8598.739;-0.01537
 866.37; 9315.447;  213.625; 8883.853;-0.02110
 866.93; 9671.896;  200.853; 9198.967;-0.02225
 867.49;10015.011;  216.081; 9536.081;-0.02176
 868.05;10251.126;  210.642; 9849.195;-0.01774
 868.61;10497.574;  206.870;10116.309;-0.01640
 869.17;10800.356;  185.765;10306.090;-0.02071
 869.73;11121.471;  202.660;10652.537;-0.01906
 870.29;11472.253;  209.554;10985.985;-0.01917
 870.85;11816.368;  212.115;11316.099;-0.01914
 871.41;12160.150;  192.010;11700.213;-0.01702
 871.97;12546.931;  179.571;12032.994;-0.01843
 872.53;12932.713;  184.799;12414.108;-0.01804
 873.09;13284.162;  192.361;12748.222;-0.01815
 873.65;13643.610;  202.922;13125.336;-0.01708
 874.20;14026.392;  204.150;13530.783;-0.01586
 874.76;14471.725;  206.483;13844.450;-0.01953
 875.32;14882.725;  199.150;14344.450;-0.01622
 875.88;15234.392;  204.817;14722.117;-0.01506
 876.44;15591.392;  218.150;15059.450;-0.01529
 877.00;15890.058;  218.150;15358.117;-0.01500
 877.56;16211.392;  215.483;15696.450;-0.01421
 878.12;16564.392;  204.483;16104.450;-0.01238
 878.68;16844.058;  211.817;16344.450;-0.01325
 879.23;17151.058;  207.150;16637.783;-0.01336
 879.79;17399.725;  220.483;16875.783;-0.01345
 880.35;17685.058;  205.150;17127.117;-0.01409
 880.91;17871.725;  192.150;17367.783;-0.01256
 881.47;18124.058;  175.817;17611.783;-0.01258
 882.03;18400.392;  191.483;17929.783;-0.01137
 882.59;18748.058;  204.150;18199.450;-0.01304
 883.14;19042.725;  217.150;18423.117;-0.01453
 883.70;19226.058;  220.150;18492.117;-0.01710
 884.26;19380.725;  217.483;18606.117;-0.01792
 884.82;19341.058;  200.150;18627.783;-0.01649
 885.38;19260.725;  184.483;18693.783;-0.01310
 885.94;19205.392;  186.817;18692.783;-0.01187
 886.49;19221.058;  200.150;18759.783;-0.01066
 887.05;19216.392;  192.817;18819.450;-0.00916
 887.61;19124.058;  182.817;18766.450;-0.00828
 888.17;19051.058;  175.817;18655.450;-0.00920
 888.73;18928.725;  189.483;18492.450;-0.01023
 889.28;18769.725;  190.150;18251.117;-0.01229
 889.84;18500.058;  191.817;18020.450;-0.01153
 890.40;18375.392;  194.817;17792.450;-0.01415
 890.96;18141.058;  199.483;17628.450;-0.01259
 891.51;18034.725;  189.483;17470.117;-0.01396
 892.07;17839.725;  183.817;17244.117;-0.01490
 892.63;17750.058;  190.483;17036.783;-0.01801
 893.19;17587.058;  200.817;16880.117;-0.01803
 893.74;17343.392;  215.150;16772.783;-0.01471
 894.30;17121.058;  206.150;16671.450;-0.01170
 894.86;16901.392;  185.150;16510.450;-0.01028
 895.42;16864.392;  176.483;16397.450;-0.01233
 895.97;16787.392;  175.150;16362.450;-0.01125
 896.53;16755.058;  203.817;16299.450;-0.01212
 897.09;16678.058;  212.817;16258.117;-0.01122
 897.65;16616.392;  225.483;16079.783;-0.01446
 898.20;16570.392;  228.483;15994.117;-0.01559
 898.76;16475.725;  215.150;15888.117;-0.01598
 899.32;16394.725;  215.483;15824.450;-0.01558
 899.87;16328.392;  206.483;15765.117;-0.01545
 900.43;16187.058;  206.150;15631.783;-0.01536
 900.99;16113.392;  194.483;15508.450;-0.01683
 901.54;15932.725;  181.150;15319.450;-0.01725
 902.10;15822.058;  193.150;15133.117;-0.01958
 902.66;15503.725;  208.483;14918.117;-0.01695
 903.21;15273.058;  221.817;14754.117;-0.01524
 903.77;15022.392;  229.483;14588.450;-0.01293
 904.33;14955.392;  209.483;14443.783;-0.01534
 904.88;14892.725;  198.150;14329.783;-0.01696
 905.44;14835.392;  177.150;14293.450;-0.01636
 906.00;14792.725;  191.150;14324.117;-0.01417
 906.55;14667.392;  207.483;14294.117;-0.01136
 907.11;14536.725;  214.150;14239.117;-0.00912
 907.67;14270.725;  205.817;14016.117;-0.00793
 908.22;14116.725;  196.150;13855.783;-0.00822
 908.78;14018.058;  187.817;13715.783;-0.00960
 909.33;14016.058;  195.483;13616.783;-0.01273
 909.89;13934.725;  192.150;13488.783;-0.01433
 910.45;13831.058;  201.150;13406.783;-0.01373
 911.00;13718.725;  191.483;13362.117;-0.01160
 911.56;13661.392;  203.817;13272.117;-0.01275
 912.12;13546.392;  208.483;13101.117;-0.01475
 912.67;13459.725;  221.483;12951.117;-0.01701
 913.23;13243.725;  194.150;12807.450;-0.01477
 913.78;13100.058;  178.483;12651.783;-0.01533
 914.34;12962.725;  201.483;12642.117;-0.01105
 914.89;12853.392;  216.483;12543.117;-0.01080
 915.45;12848.725;  227.150;12558.117;-0.01012
 916.01;12750.058;  195.483;12386.117;-0.01278
 916.56;12710.058;  201.483;12282.450;-0.01511
 917.12;12550.058;  196.817;12063.117;-0.01747
 917.67;12395.392;  195.483;11981.117;-0.01500
 918.23;12278.392;  182.817;11944.450;-0.01216
 918.78;12206.392;  186.483;11927.117;-0.01021
 919.34;12150.392;  188.817;11843.783;-0.01128
 919.89;12072.392;  199.150;11694.117;-0.01406
 920.45;11895.725;  185.817;11531.783;-0.01371
 921.00;11757.058;  168.817;11330.783;-0.01628
 921.56;11585.058;  176.150;11296.783;-0.01111
 922.11;11492.392;  175.150;11154.450;-0.01317
 922.67;11378.725;  202.483;11048.450;-0.01303
 923.22;11246.392;  191.150;10815.450;-0.01727
 923.78;11030.392;  202.817;10632.117;-0.01628
 924.33;10843.725;  195.817;10497.117;-0.01437
 924.89;10686.058;  196.483;10361.117;-0.01367
 925.44;10534.058;  204.817;10248.117;-0.01219
 926.00;10379.392;  201.150;10018.783;-0.01567
 926.55;10203.392;  205.150; 9867.117;-0.01486
 927.11;10135.392;  188.150; 9720.450;-0.01850
 927.66;10064.392;  177.817; 9717.117;-0.01553
 928.22;10019.058;  174.483; 9670.783;-0.01564
 928.77; 9884.392;  190.150; 9636.117;-0.01127
 929.33; 9794.392;  204.150; 9587.783;-0.00946
 929.88; 9902.392;  205.150; 9516.450;-0.01764
 930.43; 9919.392;  182.483; 9493.450;-0.01943
 930.99; 9958.058;  174.817; 9470.117;-0.02222
 931.54; 9826.058;  167.150; 9456.783;-0.01693
 932.10; 9825.725;  190.150; 9473.117;-0.01619
 932.65; 9781.058;  197.150; 9480.117;-0.01386
 933.21; 9733.058;  198.483; 9496.450;-0.01091
 933.76; 9793.725;  187.483; 9472.117;-0.01479
 934.31; 9864.392;  183.150; 9454.117;-0.01881
 934.87; 9889.392;  190.150; 9433.783;-0.02090
 935.42; 9853.058;  199.483; 9431.450;-0.01939
 935.98; 9813.725;  195.483; 9388.450;-0.01964
 936.53; 9800.725;  193.817; 9335.450;-0.02156
 937.08; 9780.058;  191.150; 9347.783;-0.02003
 937.64; 9697.392;  197.817; 9356.783;-0.01586
 938.19; 9692.058;  196.483; 9425.117;-0.01238
 938.74; 9677.058;  199.817; 9340.117;-0.01572
 939.30; 9706.392;  187.150; 9339.783;-0.01706
 939.85; 9690.725;  186.483; 9209.783;-0.02255
 940.40; 9638.725;  173.817; 9251.783;-0.01813
 940.96; 9621.392;  187.150; 9238.450;-0.01800
 941.51; 9536.392;  189.483; 9244.783;-0.01377
 942.06; 9504.392;  197.150; 9160.450;-0.01635
 942.62; 9365.392;  184.817; 9036.783;-0.01583
 943.17; 9290.058;  195.150; 8966.450;-0.01573
 943.72; 9192.725;  180.483; 8903.117;-0.01419
 944.28; 9218.725;  199.483; 8795.117;-0.02089
 944.83; 9160.725;  184.150; 8766.783;-0.01949
 945.38; 9115.392;  194.483; 8735.117;-0.01892
 945.94; 9031.725;  186.483; 8804.450;-0.01130
 946.49; 9028.392;  205.150; 8772.783;-0.01277
 947.04; 8957.392;  208.817; 8738.117;-0.01102
 947.60; 8941.725;  215.150; 8638.117;-0.01538
 948.15; 8871.725;  203.483; 8519.117;-0.01804
 948.70; 8821.058;  212.817; 8413.783;-0.02105
 949.25; 8674.058;  206.150; 8325.117;-0.01828
 949.81; 8545.392;  208.817; 8271.117;-0.01453
 950.36; 8411.058;  198.483; 8157.117;-0.01364
 950.91; 8272.058;  207.150; 8037.783;-0.01280
 951.46; 8110.725;  203.817; 7873.117;-0.01325
 952.02; 7971.058;  207.150; 7734.117;-0.01346
 952.57; 7806.725;  207.150; 7606.450;-0.01160
 953.12; 7757.392;  218.483; 7526.117;-0.01353
 953.67; 7683.392;  218.150; 7443.783;-0.01417
 954.23; 7634.058;  215.817; 7359.450;-0.01638
 954.78; 7480.392;  208.150; 7234.450;-0.01494
 955.33; 7338.725;  218.150; 7119.783;-0.01356
 955.88; 7216.058;  217.150; 6980.117;-0.01489
 956.44; 7125.058;  230.483; 6838.450;-0.01844
 956.99; 7037.058;  228.817; 6737.117;-0.01957
 957.54; 6971.725;  223.817; 6672.783;-0.01968
 958.09; 6954.725;  222.150; 6636.783;-0.02101
 958.64; 6885.392;  206.817; 6607.450;-0.01846
 959.20; 6849.058;  203.483; 6532.450;-0.02120
 959.75; 6751.058;  199.817; 6496.450;-0.01722
 960.30; 6772.392;  218.150; 6441.783;-0.02248
 960.85; 6724.725;  225.150; 6424.450;-0.02054
 961.40; 6726.058;  228.817; 6381.117;-0.02369
 961.95; 6688.725;  231.817; 6360.783;-0.02264
 962.51; 6667.058;  239.483; 6360.117;-0.02125
 963.06; 6703.725;  242.817; 6380.117;-0.02232
 963.61; 6707.058;  234.150; 6314.783;-0.02715
 964.16; 6678.392;  235.150; 6258.450;-0.02927
 964.71; 6601.725;  222.483; 6212.117;-0.02737
 965.26; 6588.392;  213.150; 6253.117;-0.02346
 965.81; 6592.725;  210.817; 6289.117;-0.02117
 966.36; 6627.058;  208.483; 6323.783;-0.02102
 966.92; 6649.392;  216.150; 6305.117;-0.02389
 967.47; 6698.392;  218.483; 6338.117;-0.02484
 968.02; 6735.725;  232.483; 6354.117;-0.02626
 968.57; 6749.725;  234.817; 6375.450;-0.02570
 969.12; 6740.058;  219.817; 6368.783;-0.02546
 969.67; 6737.392;  204.483; 6420.783;-0.02157
 970.22; 6738.725;  194.150; 6469.783;-0.01822
 970.77; 6824.058;  199.817; 6539.117;-0.01909
 971.32; 6899.725;  197.483; 6593.117;-0.02034
 971.87; 7022.725;  198.817; 6693.117;-0.02150
 972.42; 7129.392;  215.150; 6793.117;-0.02165
 972.98; 7190.725;  220.817; 6908.783;-0.01793
 973.53; 7226.058;  231.483; 6996.117;-0.01452
 974.08; 7324.725;  215.483; 7040.450;-0.01772
 974.63; 7423.392;  223.483; 7078.450;-0.02132
 975.18; 7522.725;  218.483; 7103.117;-0.02569
 975.73; 7547.392;  224.817; 7157.450;-0.02377
 976.28; 7569.725;  221.483; 7219.117;-0.02123
 976.83; 7596.392;  221.483; 7315.450;-0.01687
 977.38; 7631.725;  219.483; 7373.783;-0.01538
 977.93; 7673.392;  222.150; 7387.450;-0.01699
 978.48; 7701.058;  228.483; 7365.783;-0.01994
 979.03; 7716.725;  234.817; 7358.117;-0.02133
 979.58; 7692.725;  221.483; 7329.117;-0.02167
 980.13; 7665.725;  207.150; 7367.783;-0.01770
 980.68; 7626.725;  186.483; 7310.450;-0.01887
 981.23; 7534.058;  185.817; 7278.117;-0.01540
 981.78; 7566.058;  207.150; 7207.450;-0.02170
 982.33; 7453.392;  219.150; 7257.117;-0.01195
 982.88; 7483.725;  232.483; 7211.783;-0.01660
 983.43; 7412.725;  218.150; 7145.783;-0.01642
 983.98; 7407.058;  215.150; 6984.117;-0.02632
 984.53; 7297.725;  203.817; 6873.450;-0.02678
 985.08; 7234.058;  209.817; 6835.783;-0.02535
 985.63; 7171.058;  211.150; 6787.117;-0.02464
 986.18; 7183.058;  218.817; 6756.783;-0.02743
 986.73; 7052.392;  218.483; 6610.450;-0.02903
 987.27; 6971.058;  227.483; 6521.117;-0.02999
 987.82; 6847.725;  238.483; 6431.783;-0.02823
 988.37; 6762.725;  243.150; 6400.783;-0.02481
 988.92; 6628.725;  234.150; 6351.117;-0.01928
 989.47; 6543.392;  214.483; 6285.117;-0.01809
 990.02; 6436.725;  208.483; 6199.117;-0.01689
 990.57; 6407.058;  208.150; 6083.117;-0.02331
 991.12; 6318.058;  215.150; 6044.450;-0.01992
 991.67; 6228.392;  213.817; 5969.117;-0.01914
 992.22; 6113.058;  200.483; 5915.450;-0.01476
 992.77; 6029.725;  200.150; 5802.450;-0.01727
 993.31; 6005.058;  204.817; 5735.783;-0.02065
 993.86; 5927.392;  230.483; 5683.783;-0.01898
 994.41; 5810.392;  235.150; 5580.117;-0.01832
 994.96; 5648.725;  226.483; 5473.117;-0.01430
 995.51; 5537.725;  218.817; 5377.783;-0.01326
 996.06; 5431.392;  208.483; 5293.783;-0.01160
 996.61; 5368.392;  222.483; 5201.783;-0.01429
 997.15; 5271.058;  236.150; 5083.450;-0.01649
 997.70; 5209.058;  241.150; 4965.117;-0.02187
 998.25; 5098.392;  247.483; 4873.450;-0.02062
 998.80; 4956.058;  248.483; 4740.117;-0.02039
 999.35; 4761.058;  249.483; 4623.450;-0.01345
 999.90; 4571.058;  236.150; 4455.117;-0.01177
1000.44; 4436.725;  224.483; 4340.450;-0.01004
1000.99; 4326.725;  232.483; 4190.783;-0.01466
1001.54; 4206.058;  237.150; 4067.450;-0.01544
1002.09; 4099.058;  231.817; 3939.117;-0.01834
1002.64; 3986.058;  238.483; 3855.450;-0.01541
1003.18; 3925.058;  240.483; 3766.783;-0.01907
1003.73; 3817.392;  238.483; 3661.450;-0.01935
1004.28; 3741.058;  226.817; 3584.450;-0.01980
1004.83; 3626.725;  209.483; 3488.117;-0.01798
1005.38; 3569.725;  210.150; 3420.783;-0.01969
1005.92; 3493.392;  219.150; 3321.783;-0.02338
1006.47; 3417.725;  236.817; 3231.783;-0.02616
1007.02; 3308.725;  235.483; 3140.117;-0.02451
1007.57; 3228.058;  222.817; 3087.450;-0.02081
1008.11; 3180.725;  211.817; 3028.450;-0.02287
1008.66; 3128.058;  205.150; 2973.450;-0.02360
1009.21; 3047.058;  192.483; 2907.783;-0.02172
1009.75; 2966.058;  177.817; 2862.117;-0.01650
1010.30; 2883.058;  170.150; 2793.117;-0.01464
1010.85; 2845.392;  176.817; 2712.783;-0.02214
1011.40; 2786.392;  204.150; 2628.450;-0.02741
1011.94; 2736.392;  221.817; 2545.783;-0.03423
1012.49; 2641.058;  216.483; 2464.450;-0.03285
1013.04; 2513.392;  194.150; 2362.117;-0.02929
1013.58; 2413.392;  184.150; 2325.117;-0.01755
1014.13; 2337.392;  188.483; 2268.117;-0.01423
1014.68; 2309.058;  196.483; 2233.450;-0.01583
1015.23; 2282.058;  203.150; 2181.450;-0.02154
1015.77; 2227.392;  199.817; 2113.117;-0.02519
1016.32; 2207.392;  204.817; 2072.450;-0.03030
1016.87; 2148.058;  209.483; 2012.783;-0.03141
1017.41; 2096.725;  206.817; 1977.450;-0.02831
1017.96; 2030.725;  194.817; 1953.450;-0.01868
1018.50; 1995.392;  186.483; 1926.450;-0.01688
1019.05; 1945.392;  188.483; 1903.450;-0.01049
1019.60; 1850.392;  182.817; 1815.783;-0.00911
1020.14; 1784.058;  196.150; 1752.783;-0.00864
1020.69; 1749.725;  196.150; 1698.117;-0.01467
1021.24; 1742.058;  209.483; 1650.450;-0.02677
1021.78; 1694.392;  188.483; 1620.450;-0.02187
1022.33; 1628.725;  190.150; 1592.450;-0.01109
1022.87; 1551.392;  182.817; 1587.783; 0.01140
1023.42; 1519.392;  198.150; 1567.117; 0.01541
1023.97; 1478.392;  200.150; 1516.117; 0.01263
1024.51; 1471.392;  212.150; 1465.117;-0.00217
1025.06; 1439.392;  200.483; 1401.117;-0.01363
1025.60; 1425.392;  198.817; 1340.783;-0.03104
1026.15; 1370.058;  181.150; 1307.783;-0.02337
1026.70; 1318.058;  185.483; 1284.783;-0.01295
1027.24; 1299.058;  195.483; 1279.783;-0.00765
1027.79; 1299.058;  200.483; 1270.450;-0.01146
1028.33; 1299.392;  197.483; 1252.450;-0.01891
1028.88; 1260.392;  188.817; 1215.450;-0.01861
1029.42; 1250.392;  208.150; 1198.450;-0.02220
1029.97; 1223.058;  197.817; 1156.450;-0.02917
1030.51; 1196.392;  190.150; 1127.117;-0.03098
1031.06; 1175.058;  182.817; 1088.783;-0.03951
1031.61; 1134.725;  192.483; 1063.117;-0.03433
1032.15; 1117.725;  210.150; 1050.450;-0.03345
1032.70; 1083.392;  202.817; 1024.117;-0.03026
1033.24; 1072.725;  206.483; 1018.117;-0.02828
1033.79; 1052.058;  200.817; 1020.450;-0.01643
1034.33; 1034.725;  199.817; 1016.450;-0.00961
1034.88; 1002.392;  201.817; 1008.783; 0.00345
1035.42;  991.392;  202.817;  979.450;-0.00663
1035.97;  979.392;  204.483;  950.450;-0.01653
1036.51;  978.392;  206.483;  931.450;-0.02725
1037.06;  959.725;  200.817;  944.117;-0.00903
1037.60;  948.725;  207.150;  948.783; 0.00003
1038.14;  951.725;  204.150;  928.783;-0.01354
1038.69;  989.058;  222.150;  927.783;-0.03616
1039.23;  977.392;  234.483;  935.783;-0.02503
1039.78;  978.058;  235.150;  948.783;-0.01746
1040.32;  931.058;  224.483;  915.783;-0.00949
1040.87;  933.058;  208.483;  887.117;-0.02845
1041.41;  911.058;  198.150;  864.117;-0.02958
1041.96;  926.725;  200.817;  882.783;-0.02712
1042.50;  914.392;  197.817;  893.117;-0.01309
1043.04;  920.392;  213.817;  899.117;-0.01328
1043.59;  899.392;  217.150;  867.450;-0.02082
1044.13;  898.392;  212.483;  869.450;-0.01872
1044.68;  882.725;  205.817;  862.117;-0.01343
1045.22;  891.058;  199.150;  873.783;-0.01098
1045.76;  886.058;  201.817;  869.450;-0.01067
1046.31;  884.392;  193.483;  861.783;-0.01445
1046.85;  856.725;  200.483;  842.117;-0.00978
1047.40;  837.725;  202.483;  813.783;-0.01668
1047.94;  828.392;  215.150;  808.783;-0.01411
1048.48;  819.058;  211.150;  810.117;-0.00644
1049.03;  813.392;  214.483;  793.450;-0.01471
1049.57;  823.058;  229.150;  787.117;-0.02711
1050.11;  833.058;  222.817;  774.117;-0.04411
1050.66;  834.392;  218.483;  779.117;-0.04084
1051.20;  834.392;  206.483;  794.450;-0.02854
1051.74;  790.058;  200.817;  788.117;-0.00143
1052.29;  777.725;  200.150;  780.783; 0.00229
1052.83;  740.725;  199.150;  748.117; 0.00589
1053.37;  779.392;  224.817;  744.783;-0.02798
1053.92;  754.725;  234.150;  739.783;-0.01265
1054.46;  763.725;  236.483;  734.117;-0.02510
1055.00;  765.058;  231.483;  739.117;-0.02165
1055.55;  774.392;  230.817;  738.117;-0.02999
1056.09;  757.058;  223.817;  747.783;-0.00762
1056.63;  724.725;  215.817;  711.783;-0.01119
1057.17;  721.392;  216.483;  709.117;-0.01069
1057.72;  734.058;  225.150;  697.450;-0.03242
1058.26;  724.725;  223.483;  705.783;-0.01673
1058.80;  722.725;  229.817;  700.450;-0.02008
1059.35;  700.058;  230.483;  686.450;-0.01277
1059.89;  695.725;  230.150;  672.450;-0.02227
1060.43;  684.725;  227.817;  654.783;-0.02944
1060.97;  676.058;  223.817;  667.117;-0.00867
1061.52;  664.392;  231.150;  682.450; 0.01774
1062.06;  657.058;  231.483;  671.450; 0.01444
1062.60;  635.392;  236.483;  658.450; 0.02441
1063.14;  645.725;  232.483;  640.783;-0.00522
1063.69;  650.725;  216.483;  640.117;-0.01074
1064.23;  655.725;  208.817;  619.783;-0.03641
1064.77;  631.392;  200.483;  598.450;-0.03454
1065.31;  599.058;  201.817;  577.450;-0.02429
1065.85;  588.058;  206.483;  567.117;-0.02451
1066.40;  590.725;  205.150;  579.450;-0.01289
1066.94;  605.392;  217.817;  579.117;-0.03049
1067.48;  610.058;  209.150;  587.783;-0.02483
1068.02;  621.058;  233.817;  562.450;-0.07127
1068.56;  602.058;  216.817;  564.783;-0.04420
1069.10;  590.725;  212.817;  549.783;-0.04980
1069.65;  571.392;  195.817;  566.450;-0.00575
1070.19;  563.725;  208.817;  566.783; 0.00373
1070.73;  573.058;  223.817;  582.783; 0.01193
1071.27;  569.725;  215.817;  567.117;-0.00321
1071.81;  570.058;  207.150;  562.117;-0.00961
1072.35;  568.392;  201.817;  549.117;-0.02346
1072.90;  557.058;  197.150;  546.783;-0.01258
1073.44;  551.725;  202.817;  540.117;-0.01470
1073.98;  548.058;  206.150;  531.450;-0.02163
1074.52;  541.058;  224.483;  538.783;-0.00313
1075.06;  539.725;  218.483;  542.450; 0.00367
1075.60;  517.392;  207.483;  531.450; 0.01927
1076.14;  538.058;  204.817;  514.117;-0.03238
1076.68;  540.058;  207.150;  504.450;-0.04913
1077.22;  548.725;  225.817;  504.783;-0.06353
1077.76;  537.392;  214.817;  498.117;-0.05638
1078.31;  541.725;  229.817;  499.783;-0.06272
1078.85;  541.392;  226.483;  517.117;-0.03484
1079.39;  533.725;  243.817;  525.450;-0.01258
1079.93;  524.058;  237.817;  507.783;-0.02542
1080.47;  509.058;  227.483;  476.450;-0.05345
1081.01;  503.725;  216.150;  474.783;-0.04607
1081.55;  507.392;  208.483;  488.783;-0.02791
1082.09;  510.058;  205.817;  488.783;-0.03148
1082.63;  520.058;  210.150;  496.450;-0.03441
1083.17;  510.725;  221.150;  500.783;-0.01517
1083.71;  520.725;  228.817;  501.450;-0.02967
1084.25;  496.392;  224.483;  471.117;-0.04237
1084.79;  499.058;  214.483;  446.450;-0.08877
1085.33;  480.058;  202.817;  450.783;-0.04847
1085.87;  485.392;  199.483;  468.450;-0.02653
1086.41;  477.725;  214.483;  471.450;-0.01048
1086.95;  483.058;  222.150;  467.117;-0.02738
1087.49;  483.725;  225.817;  454.783;-0.05169
1088.03;  483.392;  216.817;  454.117;-0.05052
1088.57;  482.725;  219.817;  450.783;-0.05626
1089.11;  464.392;  222.150;  448.117;-0.03020
1089.65;  488.392;  233.150;  458.783;-0.05355
1090.19;  482.058;  238.483;  468.117;-0.02560
1090.73;  488.392;  240.483;  471.783;-0.03012
1091.27;  466.058;  238.817;  466.117; 0.00011
1091.81;  472.725;  238.483;  458.117;-0.02797
1092.35;  486.725;  247.483;  461.450;-0.04849
1092.89;  481.725;  232.150;  457.450;-0.04444
1093.43;  481.058;  223.817;  445.783;-0.06405
1093.97;  465.392;  210.150;  441.117;-0.04340
1094.51;  460.725;  208.483;  440.450;-0.03639
1095.04;  456.392;  218.483;  442.783;-0.02558
1095.58;  457.058;  238.817;  436.783;-0.04235
1096.12;  449.392;  242.817;  428.783;-0.04564
1096.66;  456.058;  239.817;  430.450;-0.05474
1097.20;  458.392;  235.817;  449.450;-0.01781
1097.74;  472.058;  246.817;  456.783;-0.03050
1098.28;  445.725;  235.817;  457.117; 0.02295
1098.82;  437.392;  230.483;  453.117; 0.03181
1099.36;  427.392;  228.150;  446.450; 0.03967
1099.89;  436.725;  230.150;  447.450; 0.02198

