
Integration time [ms]:   0.300
Averaging Nr. [scans]: 1
Smoothing Nr. [pixels]: 1
Data measured with spectrometer [name]: 1906252U1
Wave   ;Sample   ;Dark     ;Reference;Absorbance
[nm]   ;[counts] ;[counts] ;[counts] ;[A.U]

 161.30;  268.142;  271.207;  271.637; 0.00000
 161.90;  257.850;  265.524;  261.712; 0.00000
 162.51;  257.558;  259.038;  260.433; 5.00000
 163.11;  265.634;  265.693;  251.834; 0.00000
 163.71;  269.932;  276.696;  266.803; 0.00000
 164.31;  276.274;  294.270;  273.488; 0.00000
 164.91;  277.202;  288.393;  287.410; 0.00000
 165.52;  278.064;  277.299;  279.261; 0.40888
 166.12;  269.538;  271.979;  273.718; 5.00000
 166.72;  270.912;  272.971;  259.755; 0.00000
 167.32;  280.193;  271.656;  271.040; 0.00000
 167.93;  277.015;  261.266;  267.518;-0.40126
 168.53;  267.121;  254.112;  260.296;-0.32302
 169.13;  264.080;  264.427;  257.261; 0.00000
 169.73;  266.504;  271.677;  266.351; 0.00000
 170.33;  288.983;  291.614;  320.561; 5.00000
 170.94;  297.378;  317.756;  347.746; 5.00000
 171.54;  324.791;  335.278;  387.239; 5.00000
 172.14;  331.083;  338.926;  375.538; 5.00000
 172.74;  334.735;  324.358;  373.181; 0.67254
 173.34;  331.451;  319.589;  355.569; 0.48191
 173.95;  331.808;  309.596;  343.923; 0.18905
 174.55;  345.779;  318.289;  355.228; 0.12830
 175.15;  350.706;  320.689;  367.155; 0.18977
 175.75;  361.420;  322.370;  380.195; 0.17050
 176.35;  359.246;  332.415;  382.036; 0.26702
 176.95;  356.100;  327.740;  392.907; 0.36132
 177.56;  350.879;  327.608;  398.355; 0.48289
 178.16;  343.498;  316.738;  399.298; 0.48929
 178.76;  346.365;  316.306;  398.487; 0.43680
 179.36;  340.566;  310.874;  401.343; 0.48386
 179.96;  344.043;  304.800;  395.813; 0.36534
 180.56;  366.194;  308.938;  392.969; 0.16662
 181.17;  380.659;  318.009;  403.448; 0.13474
 181.77;  385.053;  318.897;  417.181; 0.17191
 182.37;  349.986;  306.653;  404.111; 0.35200
 182.97;  358.664;  319.309;  413.789; 0.38035
 183.57;  369.823;  323.525;  427.944; 0.35322
 184.17;  394.988;  336.736;  473.104; 0.36940
 184.78;  402.475;  316.624;  484.587; 0.29147
 185.38;  414.384;  315.012;  504.833; 0.28108
 185.98;  441.511;  315.783;  504.638; 0.17670
 186.58;  451.650;  316.598;  510.449; 0.15697
 187.18;  461.542;  313.002;  491.678; 0.08022
 187.78;  480.598;  324.256;  526.070; 0.11088
 188.38;  503.688;  331.840;  541.159; 0.08566
 188.98;  507.061;  337.804;  574.199; 0.14509
 189.59;  509.737;  332.575;  567.529; 0.12261
 190.19;  508.601;  326.870;  580.708; 0.14513
 190.79;  504.158;  326.914;  573.939; 0.14417
 191.39;  491.494;  317.159;  564.285; 0.15153
 191.99;  491.582;  322.498;  545.363; 0.11994
 192.59;  485.488;  317.307;  539.929; 0.12179
 193.19;  471.258;  313.765;  525.712; 0.12896
 193.79;  459.822;  325.164;  530.280; 0.18277
 194.39;  449.883;  328.250;  517.658; 0.19235
 195.00;  441.045;  327.216;  511.139; 0.20838
 195.60;  414.298;  305.566;  480.732; 0.20709
 196.20;  411.363;  304.088;  469.473; 0.18800
 196.80;  398.217;  305.278;  453.989; 0.20414
 197.40;  396.074;  313.686;  455.186; 0.23489
 198.00;  381.004;  320.693;  452.457; 0.33940
 198.60;  370.165;  317.270;  442.943; 0.37583
 199.20;  354.077;  312.435;  427.513; 0.44147
 199.80;  344.995;  303.957;  416.753; 0.43910
 200.40;  350.108;  299.492;  396.868; 0.28417
 201.00;  345.997;  293.841;  371.434; 0.17252
 201.60;  340.629;  292.845;  340.403;-0.00206
 202.21;  336.798;  298.995;  352.240; 0.14875
 202.81;  339.784;  303.760;  367.883; 0.25043
 203.41;  340.832;  301.801;  377.921; 0.29010
 204.01;  331.188;  296.447;  373.611; 0.34657
 204.61;  325.381;  287.965;  374.799; 0.36563
 205.21;  322.588;  280.528;  391.328; 0.42067
 205.81;  338.832;  276.000;  394.567; 0.27578
 206.41;  330.927;  281.190;  389.667; 0.33866
 207.01;  321.765;  291.585;  373.516; 0.43373
 207.61;  291.464;  290.832;  349.221; 1.96552
 208.21;  291.336;  294.007;  340.088; 5.00000
 208.81;  288.963;  285.376;  350.048; 1.25603
 209.41;  299.856;  292.971;  355.294; 0.95674
 210.01;  299.716;  286.985;  361.835; 0.76931
 210.61;  307.542;  290.534;  351.990; 0.55790
 211.21;  309.783;  293.399;  356.219; 0.58368
 211.81;  312.838;  300.157;  352.258; 0.61368
 212.41;  309.092;  301.896;  344.513; 0.77248
 213.01;  296.190;  296.332;  351.625; 5.00000
 213.61;  294.234;  285.263;  357.339; 0.90491
 214.21;  292.650;  282.939;  368.411; 0.94459
 214.81;  311.635;  278.704;  361.387; 0.39981
 215.41;  320.896;  282.466;  362.645; 0.31939
 216.01;  327.771;  278.247;  362.189; 0.22916
 216.61;  318.701;  287.920;  357.792; 0.35602
 217.21;  316.626;  290.599;  357.391; 0.40930
 217.81;  312.706;  297.221;  367.800; 0.65876
 218.41;  323.656;  301.628;  379.081; 0.54607
 219.01;  318.072;  307.801;  388.505; 0.89530
 219.61;  323.806;  301.739;  384.906; 0.57620
 220.21;  305.087;  297.568;  378.507; 1.03202
 220.81;  316.964;  283.737;  372.713; 0.42778
 221.41;  328.941;  284.091;  376.024; 0.31171
 222.01;  334.304;  280.426;  372.049; 0.23060
 222.61;  330.030;  298.953;  367.451; 0.34324
 223.21;  304.663;  301.813;  357.103; 1.28786
 223.81;  315.574;  301.952;  360.676; 0.63456
 224.41;  310.875;  281.875;  343.618; 0.32820
 225.01;  321.182;  269.317;  340.250; 0.13597
 225.61;  318.287;  274.108;  341.033; 0.18037
 226.21;  311.159;  273.112;  349.918; 0.30508
 226.81;  296.412;  286.490;  349.175; 0.80059
 227.41;  296.186;  284.059;  344.282; 0.69600
 228.01;  310.488;  302.172;  351.241; 0.77092
 228.61;  323.402;  306.727;  360.474; 0.50829
 229.21;  306.961;  303.825;  362.700; 1.27362
 229.81;  296.376;  308.998;  372.791; 5.00000
 230.41;  295.314;  299.055;  383.396; 5.00000
 231.01;  314.855;  300.808;  405.942; 0.87415
 231.61;  314.341;  287.307;  401.095; 0.62420
 232.21;  329.411;  300.328;  383.489; 0.45628
 232.81;  309.194;  296.307;  370.928; 0.76271
 233.41;  305.262;  302.578;  372.995; 1.41895
 234.00;  300.174;  298.240;  379.918; 1.62554
 234.60;  301.206;  290.487;  363.623; 0.83395
 235.20;  319.177;  295.152;  359.264; 0.42627
 235.80;  319.347;  295.330;  365.432; 0.46520
 236.40;  336.631;  302.765;  379.044; 0.35263
 237.00;  333.736;  303.584;  384.824; 0.43044
 237.60;  320.552;  294.000;  377.651; 0.49837
 238.20;  314.785;  295.121;  389.214; 0.67989
 238.80;  299.585;  274.112;  389.668; 0.65671
 239.40;  310.335;  279.177;  403.402; 0.60064
 240.00;  302.572;  284.599;  402.640; 0.81740
 240.59;  306.896;  298.133;  401.312; 1.07094
 241.19;  305.990;  297.989;  399.745; 1.10442
 241.79;  307.963;  288.710;  384.715; 0.69779
 242.39;  307.829;  292.222;  383.909; 0.76901
 242.99;  307.037;  286.642;  375.121; 0.63733
 243.59;  312.666;  289.230;  388.763; 0.62808
 244.19;  321.803;  286.160;  385.560; 0.44541
 244.79;  330.576;  287.511;  384.652; 0.35328
 245.39;  334.480;  287.293;  395.554; 0.36065
 245.98;  315.711;  273.053;  391.453; 0.44335
 246.58;  305.206;  274.487;  389.290; 0.57254
 247.18;  320.938;  285.342;  384.364; 0.44432
 247.78;  337.676;  295.696;  398.758; 0.39006
 248.38;  344.417;  288.656;  421.162; 0.37590
 248.98;  319.892;  277.356;  419.988; 0.52545
 249.58;  322.243;  265.673;  430.671; 0.46490
 250.17;  326.094;  275.285;  426.842; 0.47463
 250.77;  336.551;  283.143;  431.967; 0.44507
 251.37;  327.328;  286.929;  425.089; 0.53402
 251.97;  325.720;  270.293;  429.805; 0.45907
 252.57;  325.141;  265.298;  436.882; 0.45746
 253.17;  341.088;  272.929;  449.172; 0.41259
 253.77;  344.202;  284.186;  466.282; 0.48204
 254.36;  353.042;  295.474;  468.774; 0.47862
 254.96;  334.832;  295.333;  480.567; 0.67113
 255.56;  325.567;  288.604;  484.301; 0.72382
 256.16;  307.117;  278.462;  506.509; 0.90083
 256.76;  313.049;  277.524;  496.109; 0.78909
 257.36;  320.548;  276.735;  508.603; 0.72364
 257.95;  316.662;  264.992;  503.713; 0.66466
 258.55;  321.361;  264.239;  518.084; 0.64777
 259.15;  319.401;  260.564;  510.454; 0.62810
 259.75;  328.277;  269.345;  523.998; 0.63560
 260.35;  316.235;  267.461;  538.318; 0.74455
 260.94;  293.324;  268.819;  539.764; 1.04362
 261.54;  301.337;  275.530;  547.771; 1.02322
 262.14;  313.677;  279.723;  553.422; 0.90639
 262.74;  335.771;  296.084;  592.169; 0.87277
 263.34;  325.533;  285.302;  604.600; 0.89964
 263.93;  312.806;  271.414;  619.201; 0.92440
 264.53;  316.387;  269.158;  628.783; 0.88164
 265.13;  314.825;  270.950;  628.566; 0.91120
 265.73;  331.064;  275.426;  648.466; 0.82639
 266.33;  346.337;  278.566;  678.397; 0.77083
 266.92;  352.622;  275.029;  689.673; 0.72785
 267.52;  352.006;  279.954;  705.726; 0.77154
 268.12;  339.210;  273.264;  717.281; 0.82821
 268.72;  342.094;  281.951;  749.175; 0.89034
 269.31;  355.088;  293.596;  782.505; 0.90041
 269.91;  353.276;  296.813;  783.686; 0.93565
 270.51;  364.687;  298.884;  823.747; 0.90180
 271.11;  342.633;  296.018;  844.685; 1.07078
 271.70;  342.292;  281.274;  877.686; 0.99009
 272.30;  337.180;  270.568;  887.924; 0.96698
 272.90;  349.006;  264.784;  909.412; 0.88388
 273.50;  350.128;  274.785;  916.521; 0.93031
 274.09;  358.471;  285.359;  947.539; 0.95699
 274.69;  361.941;  293.425;  961.690; 0.98915
 275.29;  370.299;  297.126; 1011.041; 0.98930
 275.89;  356.112;  301.162; 1057.168; 1.13855
 276.48;  367.326;  306.441; 1108.365; 1.11962
 277.08;  372.967;  303.217; 1149.330; 1.08388
 277.68;  393.225;  300.562; 1156.928; 0.96575
 278.28;  381.695;  297.934; 1188.748; 1.02674
 278.87;  390.491;  305.120; 1219.213; 1.02968
 279.47;  410.974;  316.402; 1279.019; 1.00769
 280.07;  433.494;  311.564; 1306.537; 0.91170
 280.66;  435.092;  305.599; 1329.806; 0.89814
 281.26;  445.562;  299.502; 1356.605; 0.85958
 281.86;  454.089;  299.353; 1408.460; 0.85538
 282.46;  471.958;  289.111; 1464.667; 0.80816
 283.05;  479.141;  270.001; 1525.842; 0.77850
 283.65;  502.215;  269.267; 1577.248; 0.74934
 284.25;  494.307;  276.537; 1628.707; 0.79303
 284.84;  505.405;  297.639; 1660.819; 0.81698
 285.44;  515.619;  304.585; 1722.349; 0.82725
 286.04;  561.907;  306.626; 1767.304; 0.75754
 286.63;  574.140;  299.604; 1827.551; 0.74551
 287.23;  579.175;  285.934; 1878.582; 0.73490
 287.83;  585.574;  285.987; 1956.635; 0.74636
 288.42;  594.409;  282.947; 2012.456; 0.74452
 289.02;  618.300;  281.018; 2081.351; 0.72736
 289.62;  615.633;  274.153; 2105.373; 0.72938
 290.21;  649.141;  278.965; 2173.882; 0.70918
 290.81;  683.439;  296.139; 2171.832; 0.68511
 291.41;  709.552;  301.675; 2217.279; 0.67178
 292.00;  721.862;  287.695; 2273.257; 0.66023
 292.60;  741.521;  266.816; 2355.570; 0.64346
 293.20;  786.898;  269.053; 2441.953; 0.62284
 293.79;  811.470;  275.331; 2498.541; 0.61770
 294.39;  831.715;  284.326; 2544.463; 0.61584
 294.99;  845.690;  280.435; 2588.095; 0.61093
 295.58;  886.903;  284.687; 2619.961; 0.58859
 296.18;  882.847;  271.100; 2672.236; 0.59384
 296.78;  908.468;  267.474; 2741.524; 0.58655
 297.37;  936.518;  256.039; 2819.912; 0.57608
 297.97;  999.716;  255.858; 2927.442; 0.55528
 298.57; 1062.828;  262.727; 2989.557; 0.53251
 299.16; 1083.044;  278.359; 3083.789; 0.54237
 299.76; 1118.620;  281.775; 3176.366; 0.53894
 300.35; 1127.629;  281.214; 3269.362; 0.54782
 300.95; 1162.390;  278.404; 3324.462; 0.53729
 301.55; 1199.759;  287.229; 3346.846; 0.52542
 302.14; 1229.271;  278.314; 3431.366; 0.52057
 302.74; 1275.435;  277.164; 3537.862; 0.51406
 303.33; 1324.488;  277.506; 3665.575; 0.51001
 303.93; 1377.192;  284.053; 3763.621; 0.50285
 304.53; 1451.976;  290.889; 3809.743; 0.48154
 305.12; 1491.312;  285.666; 3889.067; 0.47549
 305.72; 1567.330;  304.345; 3962.749; 0.46189
 306.31; 1554.402;  292.556; 4062.826; 0.47537
 306.91; 1591.481;  290.122; 4183.574; 0.47594
 307.51; 1590.312;  280.000; 4278.734; 0.48455
 308.10; 1648.963;  295.710; 4394.048; 0.48123
 308.70; 1686.314;  291.190; 4468.751; 0.47631
 309.29; 1741.371;  287.634; 4547.826; 0.46694
 309.89; 1793.567;  264.902; 4638.675; 0.45654
 310.48; 1865.003;  273.673; 4739.754; 0.44817
 311.08; 1898.030;  268.620; 4876.118; 0.45143
 311.68; 1929.946;  273.221; 4959.384; 0.45157
 312.27; 1970.513;  278.703; 5074.278; 0.45249
 312.87; 2044.758;  271.869; 5225.848; 0.44627
 313.46; 2133.588;  276.691; 5385.013; 0.43949
 314.06; 2171.465;  276.193; 5529.885; 0.44279
 314.65; 2236.145;  282.238; 5632.559; 0.43748
 315.25; 2292.181;  283.262; 5774.255; 0.43669
 315.85; 2361.469;  277.637; 5914.876; 0.43220
 316.44; 2416.864;  287.913; 6071.938; 0.43406
 317.04; 2436.250;  295.255; 6216.984; 0.44183
 317.63; 2541.932;  310.823; 6400.341; 0.43606
 318.23; 2596.537;  298.737; 6546.296; 0.43440
 318.82; 2729.466;  293.221; 6674.883; 0.41821
 319.42; 2745.801;  273.276; 6781.545; 0.42032
 320.01; 2816.888;  280.055; 6929.646; 0.41850
 320.61; 2863.242;  290.511; 7164.652; 0.42682
 321.20; 2977.221;  285.758; 7272.939; 0.41431
 321.80; 3050.985;  292.860; 7497.718; 0.41701
 322.39; 3107.447;  275.154; 7636.540; 0.41482
 322.99; 3131.123;  275.755; 7857.556; 0.42411
 323.58; 3227.450;  286.597; 7977.531; 0.41751
 324.18; 3313.273;  287.901; 8124.673; 0.41336
 324.77; 3395.937;  292.485; 8318.013; 0.41263
 325.37; 3456.756;  278.984; 8442.167; 0.40974
 325.96; 3529.555;  276.253; 8588.958; 0.40742
 326.56; 3629.356;  298.768; 8771.095; 0.40548
 327.15; 3692.699;  300.036; 8947.778; 0.40636
 327.75; 3736.456;  300.925; 9129.536; 0.40990
 328.34; 3781.437;  272.723; 9291.838; 0.41002
 328.94; 3886.513;  266.072; 9447.905; 0.40417
 329.53; 3999.151;  277.765; 9658.876; 0.40155
 330.13; 4104.058;  293.098; 9872.460; 0.40030
 330.72; 4111.813;  297.428;10112.576; 0.41047
 331.32; 4161.306;  296.807;10347.750; 0.41511
 331.91; 4214.290;  286.021;10578.045; 0.41830
 332.51; 4354.031;  290.846;10832.428; 0.41404
 333.10; 4447.292;  280.941;11112.686; 0.41494
 333.69; 4556.805;  268.720;11343.870; 0.41209
 334.29; 4597.236;  259.020;11372.294; 0.40853
 334.88; 4614.505;  263.526;11404.218; 0.40833
 335.48; 4629.457;  274.151;11347.513; 0.40526
 336.07; 4654.647;  277.361;11521.065; 0.40970
 336.67; 4710.019;  271.793;11561.792; 0.40548
 337.26; 4737.967;  270.478;11724.744; 0.40890
 337.86; 4773.651;  274.661;11795.073; 0.40835
 338.45; 4853.139;  285.081;11996.201; 0.40887
 339.04; 4913.654;  280.248;12122.714; 0.40754
 339.64; 4952.771;  279.247;12324.855; 0.41118
 340.23; 4984.473;  276.541;12444.594; 0.41239
 340.83; 5040.212;  283.446;12579.002; 0.41244
 341.42; 5110.337;  284.034;12728.085; 0.41135
 342.02; 5141.978;  280.810;12860.717; 0.41294
 342.61; 5154.396;  285.029;12994.842; 0.41667
 343.20; 5231.566;  280.703;13173.363; 0.41566
 343.80; 5317.402;  275.024;13326.514; 0.41302
 344.39; 5423.676;  277.525;13574.777; 0.41228
 344.99; 5508.150;  284.701;13698.586; 0.40960
 345.58; 5585.230;  281.629;13941.331; 0.41087
 346.17; 5675.515;  272.425;14086.941; 0.40769
 346.77; 5734.415;  263.601;14425.499; 0.41307
 347.36; 5809.327;  267.766;14640.403; 0.41390
 347.96; 5898.667;  271.456;14918.073; 0.41544
 348.55; 5990.331;  272.039;15018.413; 0.41142
 349.14; 6049.844;  269.152;15148.264; 0.41060
 349.74; 6105.892;  282.193;15379.635; 0.41370
 350.33; 6194.877;  292.264;15619.281; 0.41441
 350.92; 6300.009;  292.029;15990.758; 0.41714
 351.52; 6376.628;  276.988;16197.719; 0.41666
 352.11; 6459.610;  277.642;16449.038; 0.41762
 352.70; 6587.373;  293.221;16652.467; 0.41483
 353.30; 6699.935;  299.069;16923.354; 0.41450
 353.89; 6771.735;  289.556;17199.826; 0.41643
 354.49; 6830.361;  295.537;17471.125; 0.41968
 355.08; 6894.481;  303.789;17648.240; 0.42023
 355.67; 6932.786;  306.509;17850.877; 0.42287
 356.27; 6971.330;  292.678;18013.082; 0.42378
 356.86; 7053.963;  288.376;18230.048; 0.42356
 357.45; 7195.579;  297.756;18507.331; 0.42159
 358.05; 7328.203;  297.214;18684.613; 0.41750
 358.64; 7376.885;  292.504;18894.298; 0.41925
 359.23; 7441.077;  289.300;19081.825; 0.41957
 359.83; 7541.638;  289.121;19433.380; 0.42155
 360.42; 7681.850;  293.174;19722.600; 0.41989
 361.01; 7729.745;  287.355;19981.487; 0.42262
 361.61; 7812.136;  287.502;20183.522; 0.42228
 362.20; 7843.667;  294.987;20496.718; 0.42752
 362.79; 7958.899;  302.910;20634.303; 0.42417
 363.38; 7989.433;  301.613;20815.514; 0.42625
 363.98; 8066.979;  289.171;20943.715; 0.42416
 364.57; 8122.414;  277.744;21176.149; 0.42554
 365.16; 8200.748;  288.573;21351.502; 0.42522
 365.76; 8227.192;  293.720;21537.287; 0.42776
 366.35; 8303.461;  294.920;21731.542; 0.42760
 366.94; 8342.725;  286.459;21913.791; 0.42887
 367.53; 8450.064;  286.426;22067.466; 0.42619
 368.13; 8472.411;  291.994;22246.489; 0.42875
 368.72; 8540.879;  285.482;22413.295; 0.42820
 369.31; 8632.609;  292.281;22597.374; 0.42722
 369.91; 8706.104;  283.382;22746.877; 0.42602
 370.50; 8775.974;  291.699;22820.059; 0.42411
 371.09; 8819.178;  278.017;22946.909; 0.42391
 371.68; 8885.930;  286.967;23106.324; 0.42386
 372.28; 8935.182;  294.984;23340.584; 0.42606
 372.87; 8949.097;  297.367;23443.502; 0.42738
 373.46; 9003.196;  297.723;23614.255; 0.42787
 374.05; 9111.442;  287.889;23758.158; 0.42487
 374.65; 9198.111;  290.440;23950.173; 0.42425
 375.24; 9291.619;  272.918;24146.349; 0.42277
 375.83; 9333.301;  275.848;24331.370; 0.42421
 376.42; 9405.810;  273.516;24515.563; 0.42399
 377.02; 9486.748;  293.907;24527.502; 0.42097
 377.61; 9523.918;  288.112;24762.668; 0.42324
 378.20; 9615.712;  297.747;24944.118; 0.42243
 378.79; 9661.815;  297.015;25086.217; 0.42276
 379.38; 9691.382;  282.191;25204.109; 0.42303
 379.98; 9749.086;  267.243;25344.469; 0.42239
 380.57; 9889.012;  272.112;25606.751; 0.42068
 381.16;10058.708;  291.609;25727.129; 0.41568
 381.75;10186.731;  289.589;25767.151; 0.41065
 382.35;10165.179;  283.703;25937.612; 0.41433
 382.94;10197.602;  271.231;26182.039; 0.41669
 383.53;10298.659;  279.541;26558.760; 0.41878
 384.12;10448.871;  269.432;26865.627; 0.41710
 384.71;10627.268;  284.069;27028.687; 0.41258
 385.31;10719.454;  287.699;27353.893; 0.41407
 385.90;10857.661;  299.731;27598.110; 0.41256
 386.49;10977.552;  283.306;27919.987; 0.41234
 387.08;11061.176;  296.763;28085.602; 0.41188
 387.67;11234.835;  302.047;28384.267; 0.40970
 388.26;11344.651;  312.463;28670.094; 0.41001
 388.86;11506.660;  297.866;29041.131; 0.40898
 389.45;11567.485;  285.685;29324.329; 0.41060
 390.04;11746.317;  279.860;29566.863; 0.40725
 390.63;11886.101;  284.795;29878.048; 0.40669
 391.22;12111.787;  294.422;30097.179; 0.40174
 391.81;12221.592;  303.408;30368.117; 0.40185
 392.41;12390.619;  324.211;30517.642; 0.39833
 393.00;12442.724;  349.022;30747.606; 0.40029
 393.59;12589.116;  379.676;31111.212; 0.40089
 394.18;12694.520;  399.780;31505.223; 0.40312
 394.77;12855.563;  433.703;31930.599; 0.40408
 395.36;12995.944;  473.557;32244.356; 0.40434
 395.95;13173.539;  524.323;32561.017; 0.40358
 396.55;13334.220;  566.236;32856.406; 0.40295
 397.14;13504.868;  594.577;33298.717; 0.40367
 397.73;13676.855;  601.786;33627.642; 0.40241
 398.32;13870.112;  612.294;34204.404; 0.40377
 398.91;14109.321;  621.039;34614.988; 0.40144
 399.50;14306.804;  632.059;35200.379; 0.40276
 400.09;14609.601;  605.452;35675.306; 0.39868
 400.68;14805.009;  582.293;36366.134; 0.40070
 401.27;15097.128;  548.561;37014.694; 0.39907
 401.87;15369.947;  525.771;37604.957; 0.39757
 402.46;15693.740;  501.053;38119.893; 0.39377
 403.05;15993.545;  484.389;38675.942; 0.39138
 403.64;16234.741;  490.521;39240.769; 0.39115
 404.23;16546.083;  484.797;39841.080; 0.38923
 404.82;16875.041;  502.588;40438.695; 0.38725
 405.41;17118.848;  491.629;41140.816; 0.38823
 406.00;17438.727;  497.890;41752.976; 0.38654
 406.59;17626.295;  479.966;42383.807; 0.38808
 407.18;17886.592;  482.149;42943.385; 0.38733
 407.77;18077.582;  466.520;43500.038; 0.38802
 408.37;18341.868;  484.641;43973.019; 0.38656
 408.96;18561.044;  491.806;44465.898; 0.38626
 409.55;18759.102;  504.476;44970.283; 0.38665
 410.14;18904.644;  481.626;45459.452; 0.38764
 410.73;19213.001;  490.299;45905.805; 0.38484
 411.32;19460.611;  492.855;46441.730; 0.38426
 411.91;19823.136;  505.687;47060.216; 0.38201
 412.50;20048.242;  480.732;47624.639; 0.38189
 413.09;20239.707;  484.505;48110.411; 0.38216
 413.68;20394.237;  482.467;48573.257; 0.38295
 414.27;20503.898;  487.472;48936.919; 0.38390
 414.86;20763.962;  462.470;49236.309; 0.38066
 415.45;20912.754;  452.555;49687.411; 0.38136
 416.04;21050.099;  462.743;50083.734; 0.38206
 416.63;21121.309;  468.551;50542.275; 0.38463
 417.22;21317.390;  461.867;50754.683; 0.38228
 417.81;21507.528;  462.159;51068.477; 0.38105
 418.40;21614.734;  476.694;51393.675; 0.38180
 418.99;21717.592;  477.832;51737.830; 0.38263
 419.58;21825.177;  462.218;51969.382; 0.38221
 420.17;21949.197;  452.952;52248.392; 0.38193
 420.76;22068.652;  458.593;52499.836; 0.38169
 421.35;22133.250;  472.988;53005.769; 0.38477
 421.94;22197.986;  474.287;53203.501; 0.38512
 422.53;22187.464;  469.601;53402.299; 0.38691
 423.12;22298.006;  471.552;53493.823; 0.38548
 423.71;22354.730;  463.366;53670.857; 0.38570
 424.30;22472.410;  471.573;53819.883; 0.38468
 424.89;22419.546;  477.611;53888.037; 0.38635
 425.48;22440.560;  477.854;53974.356; 0.38664
 426.07;22374.930;  465.438;53940.695; 0.38752
 426.66;22363.093;  460.097;54040.507; 0.38850
 427.25;22299.037;  453.014;53995.096; 0.38932
 427.84;22233.002;  450.549;53912.043; 0.38993
 428.43;22069.071;  452.848;53711.442; 0.39161
 429.02;21931.519;  457.772;53797.552; 0.39514
 429.61;21838.095;  448.720;53826.107; 0.39716
 430.20;21803.777;  425.820;53758.443; 0.39703
 430.79;21698.245;  437.001;53531.580; 0.39746
 431.38;21542.220;  442.471;53315.543; 0.39896
 431.97;21425.129;  451.391;53001.434; 0.39890
 432.55;21175.372;  445.807;52690.011; 0.40145
 433.14;21074.107;  441.412;52704.411; 0.40364
 433.73;20895.441;  432.971;52655.054; 0.40690
 434.32;20854.674;  424.624;52606.263; 0.40725
 434.91;20675.482;  423.161;52233.737; 0.40794
 435.50;20544.952;  418.064;51971.869; 0.40848
 436.09;20316.070;  418.432;51687.970; 0.41106
 436.68;20081.752;  422.559;51624.303; 0.41572
 437.27;19942.588;  439.214;51661.122; 0.41935
 437.86;19799.377;  433.576;51508.561; 0.42117
 438.45;19647.473;  436.794;51330.326; 0.42312
 439.04;19373.450;  419.148;51043.637; 0.42665
 439.62;19292.802;  412.025;51000.963; 0.42804
 440.21;19185.231;  413.441;50885.373; 0.42954
 440.80;19101.394;  430.263;51024.538; 0.43293
 441.39;18907.674;  449.560;51081.161; 0.43823
 441.98;18809.486;  447.874;51020.625; 0.44001
 442.57;18667.777;  436.530;50797.219; 0.44128
 443.16;18549.822;  425.660;50702.578; 0.44311
 443.75;18332.505;  431.481;50788.909; 0.44919
 444.33;18184.313;  435.018;50969.383; 0.45441
 444.92;18025.279;  440.355;50892.685; 0.45774
 445.51;17929.942;  417.614;50850.986; 0.45937
 446.10;17815.526;  410.612;51056.876; 0.46388
 446.69;17725.207;  404.712;51275.545; 0.46791
 447.28;17646.396;  420.929;51457.726; 0.47171
 447.87;17530.392;  412.657;51329.383; 0.47341
 448.45;17469.101;  413.036;51412.748; 0.47569
 449.04;17282.674;  390.874;51445.980; 0.48036
 449.63;17181.659;  386.972;51646.289; 0.48460
 450.22;17044.841;  381.501;51835.467; 0.48966
 450.81;16890.593;  386.090;52100.884; 0.49601
 451.40;16784.180;  391.666;52058.120; 0.49856
 451.98;16674.813;  398.229;52052.065; 0.50154
 452.57;16624.888;  403.856;52211.469; 0.50432
 453.16;16494.108;  401.626;52273.023; 0.50830
 453.75;16376.465;  391.994;52359.708; 0.51204
 454.34;16295.453;  388.814;52215.013; 0.51297
 454.93;16228.818;  395.232;52494.699; 0.51725
 455.51;16048.013;  391.805;52615.216; 0.52318
 456.10;15929.920;  402.670;52907.445; 0.52910
 456.69;15787.526;  396.116;53041.712; 0.53408
 457.28;15746.352;  403.304;53288.203; 0.53742
 457.87;15645.823;  395.902;53216.666; 0.53954
 458.45;15537.876;  396.108;53304.691; 0.54335
 459.04;15426.917;  388.965;53401.373; 0.54719
 459.63;15396.368;  395.666;53676.141; 0.55046
 460.22;15324.698;  396.420;53639.128; 0.55225
 460.80;15271.711;  400.600;53692.823; 0.55432
 461.39;15153.110;  392.483;53895.895; 0.55928
 461.98;15135.354;  393.792;54364.115; 0.56361
 462.57;15129.210;  398.874;54782.941; 0.56726
 463.16;15099.892;  397.668;55197.607; 0.57140
 463.74;15087.497;  387.726;55673.212; 0.57530
 464.33;14999.054;  376.102;56213.777; 0.58189
 464.92;15062.001;  370.427;56547.398; 0.58249
 465.51;15079.319;  357.831;56911.710; 0.58451
 466.09;15110.525;  358.204;57352.888; 0.58697
 466.68;15164.430;  361.518;57898.436; 0.58960
 467.27;15123.633;  372.331;58292.638; 0.59400
 467.86;15109.063;  368.243;58560.733; 0.59635
 468.44;14913.923;  363.094;58919.922; 0.60469
 469.03;14916.155;  361.882;59322.152; 0.60757
 469.62;14913.059;  367.807;59788.037; 0.61121
 470.20;14966.040;  365.300;60231.337; 0.61281
 470.79;14950.565;  374.762;60677.863; 0.61671
 471.38;14982.205;  358.816;61146.166; 0.61877
 471.97;14969.106;  359.020;61564.389; 0.62214
 472.55;15030.735;  350.111;61933.679; 0.62272
 473.14;15104.330;  362.234;62406.602; 0.62414
 473.73;15181.618;  355.473;62971.535; 0.62566
 474.31;15181.218;  347.428;63489.444; 0.62907
 474.90;15204.365;  350.797;63899.238; 0.63127
 475.49;15253.702;  352.737;64160.914; 0.63166
 476.07;15261.099;  357.870;64473.326; 0.63368
 476.66;15254.959;  347.892;64752.829; 0.63553
 477.25;15235.152;  340.581;65000.332; 0.63761
 477.84;15141.684;  352.761;65155.193; 0.64165
 478.42;15151.443;  344.733;65155.945; 0.64119
 479.01;15100.167;  344.681;65156.001; 0.64270
 479.60;15176.349;  330.210;65156.511; 0.64014
 480.18;15062.444;  334.265;65158.257; 0.64359
 480.77;15056.012;  342.135;65159.480; 0.64396
 481.35;14989.571;  347.900;65159.373; 0.64606
 481.94;14946.384;  344.738;65159.188; 0.64727
 482.53;14955.460;  335.059;65159.923; 0.64678
 483.11;14902.586;  332.000;65160.709; 0.64829
 483.70;14896.939;  318.067;65161.719; 0.64814
 484.29;14857.559;  316.585;65163.324; 0.64929
 484.87;14818.455;  306.461;65164.542; 0.65024
 485.46;14766.516;  315.710;65164.272; 0.65201
 486.05;14659.484;  319.958;65162.920; 0.65533
 486.63;14588.816;  321.237;65162.258; 0.65750
 487.22;14438.140;  317.302;65162.909; 0.66202
 487.81;14290.946;  323.288;65164.368; 0.66673
 488.39;14258.720;  331.856;65164.474; 0.66794
 488.98;14250.639;  337.207;65163.733; 0.66832
 489.56;14151.376;  317.228;65164.794; 0.67094
 490.15;13993.968;  310.772;65166.371; 0.67576
 490.74;13757.395;  302.771;65167.454; 0.68314
 491.32;13627.066;  305.937;65168.774; 0.68745
 491.91;13513.031;  316.111;64974.057; 0.69015
 492.49;13466.951;  317.823;64712.314; 0.68995
 493.08;13320.762;  332.939;64167.133; 0.69152
 493.67;13086.180;  325.500;63724.219; 0.69621
 494.25;12804.147;  343.920;63105.848; 0.70217
 494.84;12638.059;  335.724;62474.087; 0.70337
 495.42;12496.064;  338.386;61959.759; 0.70488
 496.01;12396.625;  319.873;61399.648; 0.70395
 496.59;12195.429;  310.443;60754.114; 0.70635
 497.18;12049.797;  311.106;60078.479; 0.70684
 497.77;11883.964;  311.733;59331.632; 0.70758
 498.35;11766.469;  326.966;58841.796; 0.70886
 498.94;11599.219;  324.499;58030.218; 0.70911
 499.52;11480.859;  324.914;57567.186; 0.71021
 500.11;11381.287;  311.275;56906.600; 0.70863
 500.69;11324.597;  304.601;56449.246; 0.70713
 501.28;11188.394;  315.149;55764.708; 0.70754
 501.86;11086.153;  317.653;55155.772; 0.70693
 502.45;11023.098;  338.264;54632.693; 0.70599
 503.03;10971.391;  328.939;54106.656; 0.70356
 503.62;10942.810;  339.385;53665.090; 0.70149
 504.20;10804.026;  326.215;53123.968; 0.70234
 504.79;10786.215;  326.766;52666.148; 0.69932
 505.37;10713.262;  326.582;52358.543; 0.69979
 505.96;10703.146;  332.269;51859.105; 0.69622
 506.55;10697.886;  327.706;51491.158; 0.69317
 507.13;10718.813;  315.837;51254.709; 0.68989
 507.72;10837.840;  312.954;51138.387; 0.68386
 508.30;10938.073;  319.265;50944.634; 0.67829
 508.89;11091.922;  316.460;50626.145; 0.66922
 509.47;11162.172;  308.593;50383.056; 0.66404
 510.05;11274.656;  311.037;50305.214; 0.65897
 510.64;11367.976;  312.992;50205.541; 0.65448
 511.22;11585.584;  326.961;50242.492; 0.64675
 511.81;11754.609;  323.186;50282.527; 0.64052
 512.39;11952.693;  329.747;50266.280; 0.63310
 512.98;12055.532;  310.647;50213.110; 0.62827
 513.56;12289.723;  306.947;50200.284; 0.61949
 514.15;12548.958;  297.484;50225.841; 0.61016
 514.73;12743.788;  293.306;50310.339; 0.60393
 515.32;12868.160;  298.909;50412.714; 0.60065
 515.90;13056.920;  306.909;50529.464; 0.59539
 516.49;13338.065;  321.223;50576.262; 0.58667
 517.07;13611.949;  323.415;50501.804; 0.57704
 517.66;13758.770;  325.663;50468.951; 0.57204
 518.24;13896.928;  330.491;50581.443; 0.56868
 518.82;14054.266;  322.791;50433.118; 0.56221
 519.41;14275.066;  321.449;50483.238; 0.55569
 519.99;14656.123;  304.901;50520.942; 0.54395
 520.58;15003.700;  313.039;50964.514; 0.53755
 521.16;15366.370;  316.114;51139.212; 0.52852
 521.75;15631.645;  315.579;51354.849; 0.52276
 522.33;16013.644;  314.722;51552.832; 0.51372
 522.91;16304.282;  303.280;51724.449; 0.50699
 523.50;16599.927;  304.661;51708.091; 0.49893
 524.08;16853.698;  292.957;51816.521; 0.49293
 524.67;17205.677;  296.699;52029.160; 0.48565
 525.25;17458.157;  294.898;52244.306; 0.48098
 525.83;17766.864;  300.195;52281.679; 0.47364
 526.42;18076.509;  299.604;52255.985; 0.46578
 527.00;18423.175;  297.414;52315.968; 0.45786
 527.59;18660.607;  293.742;52194.390; 0.45114
 528.17;18876.015;  296.702;52169.461; 0.44591
 528.75;19170.671;  314.407;52237.781; 0.43991
 529.34;19399.761;  317.963;52410.206; 0.43615
 529.92;19694.918;  322.096;52599.701; 0.43112
 530.50;19989.309;  308.099;52577.086; 0.42419
 531.09;20299.479;  310.277;52580.588; 0.41746
 531.67;20496.957;  319.699;52493.409; 0.41259
 532.25;20652.507;  331.224;52474.618; 0.40925
 532.84;20819.981;  319.265;52286.406; 0.40396
 533.42;21042.367;  303.579;52069.121; 0.39726
 534.00;21213.523;  296.379;51800.283; 0.39134
 534.59;21308.262;  306.923;51692.027; 0.38859
 535.17;21395.202;  307.396;51484.292; 0.38504
 535.75;21553.942;  311.833;51399.345; 0.38112
 536.34;21883.907;  327.170;51106.314; 0.37210
 536.92;22097.271;  323.362;50970.357; 0.36662
 537.50;22287.285;  320.767;50555.361; 0.35924
 538.09;22304.868;  304.234;50224.272; 0.35584
 538.67;22349.620;  307.957;49849.711; 0.35173
 539.25;22342.142;  292.004;49517.578; 0.34878
 539.84;22465.008;  298.382;49195.084; 0.34358
 540.42;22622.361;  287.620;48747.408; 0.33640
 541.00;22761.896;  304.712;48328.615; 0.33010
 541.59;22840.420;  293.453;47996.146; 0.32545
 542.17;22899.926;  303.713;47681.974; 0.32154
 542.75;22999.714;  301.687;47449.085; 0.31747
 543.33;23032.056;  321.928;47035.436; 0.31322
 543.92;23046.081;  322.791;46647.473; 0.30934
 544.50;23125.613;  319.637;46212.001; 0.30369
 545.08;23231.023;  303.653;45900.067; 0.29858
 545.67;23353.816;  304.594;45544.519; 0.29287
 546.25;23390.562;  306.855;45243.598; 0.28930
 546.83;23406.523;  305.919;44881.223; 0.28547
 547.41;23417.930;  307.185;44485.963; 0.28140
 548.00;23407.048;  304.048;44073.416; 0.27750
 548.58;23413.317;  293.554;43651.340; 0.27308
 549.16;23443.616;  273.252;43462.973; 0.27045
 549.74;23593.650;  276.221;43125.006; 0.26426
 550.33;23755.011;  287.338;42789.017; 0.25794
 550.91;23895.133;  287.502;42328.145; 0.25062
 551.49;23931.705;  275.114;42084.067; 0.24732
 552.07;23975.983;  281.527;41894.675; 0.24458
 552.66;24073.568;  296.715;41696.915; 0.24085
 553.24;24182.123;  301.874;41407.799; 0.23587
 553.82;24308.392;  287.046;41262.389; 0.23193
 554.40;24424.320;  287.502;41018.645; 0.22725
 554.98;24568.858;  286.839;40927.197; 0.22367
 555.57;24697.093;  295.511;40724.442; 0.21927
 556.15;24810.179;  295.794;40729.857; 0.21733
 556.73;24968.854;  289.872;40584.856; 0.21292
 557.31;25135.440;  280.087;40487.094; 0.20888
 557.89;25314.583;  267.680;40402.230; 0.20476
 558.48;25463.503;  270.725;40389.487; 0.20207
 559.06;25615.657;  269.279;40492.969; 0.20057
 559.64;25777.712;  288.172;40421.363; 0.19714
 560.22;25977.838;  308.276;40298.501; 0.19254
 560.80;26171.445;  311.749;40155.433; 0.18774
 561.39;26271.167;  300.174;40123.139; 0.18565
 561.97;26396.503;  304.256;40118.465; 0.18353
 562.55;26640.630;  305.864;40159.584; 0.17994
 563.13;26901.529;  307.652;40244.814; 0.17660
 563.71;27052.705;  295.320;40343.674; 0.17514
 564.29;27160.190;  296.315;40286.513; 0.17278
 564.88;27354.390;  280.495;40218.374; 0.16883
 565.46;27522.135;  277.260;40267.767; 0.16667
 566.04;27770.610;  269.464;40338.574; 0.16346
 566.62;28012.483;  292.162;40520.457; 0.16173
 567.20;28272.036;  292.265;40647.678; 0.15906
 567.78;28533.776;  300.170;40851.754; 0.15724
 568.36;28750.776;  300.837;41002.754; 0.15553
 568.94;29012.885;  296.460;41004.189; 0.15155
 569.53;29148.225;  295.816;41099.192; 0.15051
 570.11;29425.859;  283.902;41113.488; 0.14646
 570.69;29598.957;  278.869;41248.245; 0.14529
 571.27;29792.641;  279.854;41227.262; 0.14222
 571.85;29945.602;  279.584;41295.220; 0.14069
 572.43;30241.280;  299.078;41479.213; 0.13840
 573.01;30402.605;  288.199;41566.526; 0.13695
 573.59;30400.076;  284.931;41522.011; 0.13650
 574.17;30462.024;  270.419;41423.650; 0.13452
 574.76;30701.787;  278.826;41529.098; 0.13223
 575.34;31033.685;  274.920;41725.997; 0.12957
 575.92;31264.878;  271.771;41808.186; 0.12716
 576.50;31481.526;  265.398;41828.507; 0.12433
 577.08;31640.069;  261.206;41866.048; 0.12251
 577.66;31781.726;  250.776;41875.013; 0.12061
 578.24;31752.549;  252.747;41879.155; 0.12106
 578.82;31756.638;  257.942;41897.583; 0.12121
 579.40;31855.932;  266.978;41903.210; 0.11994
 579.98;32054.683;  273.567;41841.961; 0.11659
 580.56;32243.372;  281.852;41853.319; 0.11417
 581.14;32339.219;  291.659;41917.834; 0.11357
 581.72;32419.299;  280.280;42082.244; 0.11416
 582.30;32662.867;  273.151;42074.467; 0.11078
 582.88;32878.019;  274.650;42152.288; 0.10872
 583.46;33153.208;  282.363;42189.821; 0.10548
 584.04;33309.832;  282.956;42171.457; 0.10323
 584.62;33454.522;  265.125;42197.830; 0.10155
 585.21;33589.463;  267.265;42241.428; 0.10025
 585.79;33681.386;  273.754;42392.009; 0.10062
 586.37;33789.685;  277.118;42415.309; 0.09947
 586.95;33886.857;  275.522;42455.787; 0.09862
 587.53;34022.574;  269.979;42469.819; 0.09700
 588.11;34191.006;  278.442;42585.262; 0.09605
 588.69;34390.262;  282.733;42557.865; 0.09323
 589.27;34460.204;  283.424;42506.477; 0.09182
 589.85;34587.336;  276.026;42443.602; 0.08954
 590.43;34665.343;  271.715;42599.939; 0.09015
 591.01;34849.917;  278.076;42722.853; 0.08910
 591.59;35032.007;  288.299;42936.945; 0.08903
 592.16;35260.386;  287.924;42891.657; 0.08572
 592.74;35458.784;  291.617;42886.045; 0.08322
 593.32;35504.371;  293.193;42739.948; 0.08116
 593.90;35525.729;  297.895;42708.966; 0.08059
 594.48;35441.461;  288.777;42603.037; 0.08053
 595.06;35462.221;  285.245;42684.475; 0.08110
 595.64;35496.982;  272.769;42709.242; 0.08090
 596.22;35554.548;  276.890;42757.472; 0.08069
 596.80;35576.369;  268.138;42505.619; 0.07782
 597.38;35591.314;  264.245;42457.558; 0.07714
 597.96;35701.997;  262.869;42299.911; 0.07415
 598.54;35717.156;  268.057;42320.734; 0.07419
 599.12;35708.502;  272.769;42174.074; 0.07279
 599.70;35643.381;  272.156;42133.628; 0.07316
 600.28;35604.628;  269.178;41999.881; 0.07225
 600.86;35596.992;  273.568;41898.236; 0.07129
 601.44;35605.076;  279.130;41816.989; 0.07035
 602.02;35653.071;  273.135;41601.984; 0.06750
 602.59;35751.259;  269.019;41487.164; 0.06508
 603.17;35589.742;  254.435;41427.991; 0.06641
 603.75;35425.105;  264.600;41407.036; 0.06823
 604.33;35230.437;  268.544;41269.041; 0.06919
 604.91;35352.040;  272.574;41056.648; 0.06544
 605.49;35404.799;  271.546;40985.067; 0.06402
 606.07;35392.963;  254.900;40828.877; 0.06247
 606.65;35276.788;  260.422;40696.701; 0.06250
 607.23;35206.550;  264.441;40448.820; 0.06071
 607.80;35066.768;  277.156;40221.379; 0.06000
 608.38;34902.543;  277.256;40025.464; 0.05992
 608.96;34835.088;  285.786;39921.000; 0.05964
 609.54;34698.128;  288.246;39743.725; 0.05942
 610.12;34613.111;  283.928;39528.375; 0.05811
 610.70;34362.361;  273.259;39095.265; 0.05646
 611.28;34228.493;  259.195;38813.390; 0.05499
 611.85;33995.996;  265.841;38433.913; 0.05368
 612.43;33806.699;  260.695;38304.961; 0.05465
 613.01;33562.237;  263.202;38019.161; 0.05455
 613.59;33383.527;  249.299;37795.112; 0.05428
 614.17;33241.157;  240.914;37668.085; 0.05467
 614.75;33048.275;  222.778;37521.205; 0.05548
 615.32;32861.854;  209.277;37291.775; 0.05525
 615.90;32756.976;  219.080;36866.572; 0.05165
 616.48;32595.386;  232.952;36658.988; 0.05137
 617.06;32345.891;  255.157;36308.488; 0.05057
 617.64;31945.212;  246.140;36072.812; 0.05316
 618.22;31700.250;  241.049;35666.522; 0.05157
 618.79;31584.348;  228.178;35515.632; 0.05130
 619.37;31441.065;  227.104;35180.352; 0.04914
 619.95;31202.671;  231.387;34894.600; 0.04891
 620.53;30789.570;  218.869;34491.494; 0.04964
 621.11;30416.027;  206.529;34156.975; 0.05070
 621.68;30133.083;  201.116;33920.700; 0.05175
 622.26;30131.505;  202.843;33803.106; 0.05026
 622.84;30076.111;  212.594;33643.042; 0.04900
 623.42;29993.805;  214.208;33340.072; 0.04625
 623.99;29772.890;  232.130;33128.823; 0.04673
 624.57;29574.272;  239.695;32874.211; 0.04630
 625.15;29380.672;  249.244;32723.283; 0.04717
 625.73;29149.502;  235.066;32483.448; 0.04739
 626.30;28955.182;  228.444;32290.122; 0.04770
 626.88;28841.331;  228.031;32032.596; 0.04592
 627.46;28674.174;  230.061;31766.787; 0.04482
 628.04;28494.264;  242.419;31549.234; 0.04459
 628.61;28254.468;  241.899;31249.103; 0.04411
 629.19;27975.792;  244.829;31015.066; 0.04517
 629.77;27805.488;  231.831;30736.758; 0.04388
 630.35;27602.244;  234.217;30562.869; 0.04461
 630.92;27566.621;  232.092;30375.921; 0.04249
 631.50;27381.831;  220.757;30199.145; 0.04286
 632.08;27211.361;  206.521;29949.680; 0.04195
 632.66;26956.149;  196.801;29744.460; 0.04305
 633.23;26771.113;  216.776;29426.430; 0.04139
 633.81;26624.374;  225.566;29138.020; 0.03950
 634.39;26417.791;  220.298;28844.754; 0.03848
 634.96;26220.498;  221.956;28624.791; 0.03841
 635.54;26028.916;  216.680;28606.896; 0.04134
 636.12;25824.305;  214.735;28334.976; 0.04062
 636.69;25681.596;  204.526;28222.591; 0.04129
 637.27;25350.187;  199.403;27913.834; 0.04215
 637.85;25287.087;  217.219;27696.062; 0.03985
 638.42;25031.014;  206.286;27392.989; 0.03947
 639.00;24970.467;  223.367;27259.457; 0.03842
 639.58;24668.278;  209.789;26981.612; 0.03925
 640.15;24511.143;  222.891;26790.445; 0.03896
 640.73;24329.592;  204.119;26492.226; 0.03728
 641.31;24296.373;  216.013;26471.006; 0.03755
 641.88;24150.489;  210.908;26285.787; 0.03711
 642.46;24050.604;  226.803;26132.901; 0.03639
 643.04;23847.052;  214.697;25934.349; 0.03676
 643.61;23660.834;  223.925;25817.463; 0.03823
 644.19;23446.949;  209.153;25659.577; 0.03950
 644.77;23306.064;  224.048;25468.358; 0.03889
 645.34;23270.180;  211.943;25293.805; 0.03653
 645.92;23242.628;  214.504;25070.586; 0.03317
 646.49;23137.410;  218.399;24938.033; 0.03285
 647.07;22951.192;  220.293;24745.814; 0.03300
 647.65;22793.307;  224.188;24564.928; 0.03282
 648.22;22599.422;  218.082;24391.042; 0.03344
 648.80;22591.871;  227.310;24368.156; 0.03319
 649.37;22590.652;  227.872;24339.937; 0.03271
 649.95;22531.768;  227.433;24242.051; 0.03209
 650.53;22440.883;  209.328;24121.165; 0.03164
 651.10;22255.331;  214.222;24054.279; 0.03407
 651.68;22180.780;  211.450;24020.060; 0.03492
 652.25;22056.228;  221.012;23899.174; 0.03519
 652.83;21957.010;  211.573;23700.955; 0.03350
 653.41;21872.459;  208.468;23524.069; 0.03191
 653.98;21796.907;  212.362;23340.850; 0.03000
 654.56;21675.689;  211.590;23307.630; 0.03182
 655.13;21628.804;  208.818;23285.744; 0.03236
 655.71;21471.919;  207.379;23284.525; 0.03553
 656.28;21459.034;  194.941;23185.639; 0.03391
 656.86;21426.483;  188.169;22962.753; 0.03033
 657.43;21441.931;  190.397;22872.868; 0.02830
 658.01;21341.047;  212.958;22793.315; 0.02887
 658.58;21260.828;  207.519;22876.096; 0.03210
 659.16;21141.277;  211.747;22798.876; 0.03310
 659.74;21145.725;  196.309;22777.324; 0.03257
 660.31;21055.507;  204.203;22714.438; 0.03325
 660.89;21078.956;  198.098;22687.885; 0.03224
 661.46;21018.404;  206.659;22545.999; 0.03076
 662.04;21027.186;  208.554;22516.780; 0.03001
 662.61;21030.301;  207.448;22500.894; 0.02964
 663.19;21027.750;  206.676;22626.342; 0.03213
 663.76;21029.532;  209.571;22600.456; 0.03159
 664.34;21025.980;  211.132;22526.237; 0.03023
 664.91;21084.429;  214.027;22413.684; 0.02682
 665.49;21136.877;  216.922;22441.798; 0.02628
 666.06;21232.326;  213.150;22513.246; 0.02569
 666.64;21232.774;  212.044;22555.693; 0.02651
 667.21;21238.889;  216.606;22500.140; 0.02530
 667.79;21206.671;  204.167;22400.588; 0.02401
 668.36;21182.120;  201.395;22402.702; 0.02456
 668.93;21182.568;  202.290;22421.149; 0.02491
 669.51;21004.350;  198.184;22426.263; 0.02871
 670.08;20951.465;  192.412;22387.044; 0.02904
 670.66;20929.580;  189.307;22273.825; 0.02727
 671.23;21066.029;  213.201;22361.606; 0.02618
 671.81;21134.477;  219.763;22403.720; 0.02559
 672.38;21097.926;  224.324;22501.167; 0.02826
 672.96;21148.708;  213.552;22510.281; 0.02736
 673.53;21201.823;  213.113;22482.395; 0.02572
 674.10;21260.938;  213.008;22524.843; 0.02533
 674.68;21180.720;  228.236;22505.290; 0.02662
 675.25;21092.502;  221.131;22417.404; 0.02673
 675.83;21099.950;  215.692;22370.185; 0.02564
 676.40;21133.065;  203.253;22300.299; 0.02357
 676.98;21109.847;  209.148;22323.413; 0.02451
 677.55;21012.962;  210.043;22281.527; 0.02571
 678.12;20953.744;  223.937;22260.975; 0.02656
 678.70;20898.859;  221.832;22236.089; 0.02722
 679.27;20873.641;  229.060;22163.870; 0.02633
 679.85;20910.756;  216.621;22124.984; 0.02476
 680.42;20924.538;  216.516;22133.431; 0.02464
 680.99;20883.653;  192.744;22099.212; 0.02479
 681.57;20779.435;  198.305;22028.659; 0.02559
 682.14;20774.217;  205.866;21848.773; 0.02212
 682.71;20738.665;  210.761;21795.554; 0.02180
 683.29;20671.114;  200.656;21706.668; 0.02143
 683.86;20475.896;  185.884;21546.116; 0.02232
 684.43;20350.011;  198.112;21362.230; 0.02128
 685.01;20260.793;  197.006;21197.011; 0.01981
 685.58;20344.575;  206.234;21272.458; 0.01956
 686.16;20316.690;  206.462;21269.239; 0.02010
 686.73;20247.805;  215.023;21397.686; 0.02424
 687.30;20124.253;  207.585;21388.467; 0.02673
 687.88;20139.702;  217.479;21321.914; 0.02504
 688.45;20108.817;  210.707;21118.362; 0.02149
 689.02;20037.599;  213.602;21022.142; 0.02105
 689.60;19941.381;  190.497;20889.257; 0.02036
 690.17;19951.829;  199.391;20926.704; 0.02092
 690.74;19856.944;  189.619;20805.485; 0.02046
 691.31;19780.726;  204.181;20824.932; 0.02257
 691.89;19651.175;  191.742;20754.713; 0.02396
 692.46;19636.290;  212.637;20700.494; 0.02317
 693.03;19665.738;  229.198;20611.941; 0.02064
 693.61;19576.187;  234.759;20426.722; 0.01869
 694.18;19580.969;  237.320;20424.503; 0.01854
 694.75;19463.417;  206.882;20414.950; 0.02095
 695.32;19418.866;  208.110;20458.064; 0.02288
 695.90;19330.981;  203.004;20312.512; 0.02173
 696.47;19287.763;  203.899;20210.626; 0.02051
 697.04;19345.545;  214.460;20060.073; 0.01592
 697.62;19221.993;  213.355;20039.187; 0.01828
 698.19;19143.108;  229.250;19951.301; 0.01817
 698.76;19002.557;  211.144;19960.082; 0.02158
 699.33;19020.339;  210.706;19883.196; 0.01948
 699.91;18968.454;  196.600;19795.977; 0.01874
 700.48;18909.236;  206.162;19674.091; 0.01741
 701.05;18789.351;  208.056;19645.538; 0.01956
 701.62;18803.133;  232.951;19536.652; 0.01682
 702.20;18737.581;  235.179;19463.767; 0.01672
 702.77;18659.696;  232.073;19314.881; 0.01517
 703.34;18435.478;  217.301;19303.995; 0.02023
 703.91;18381.593;  214.196;19161.775; 0.01826
 704.48;18322.375;  220.091;19054.223; 0.01721
 705.06;18336.490;  212.652;18964.004; 0.01478
 705.63;18244.939;  221.213;18940.118; 0.01644
 706.20;18268.387;  214.441;18934.565; 0.01574
 706.77;18201.502;  221.336;18864.679; 0.01573
 707.34;18125.951;  215.564;18821.793; 0.01655
 707.92;17979.066;  205.792;18710.907; 0.01752
 708.49;17958.515;  193.353;18575.022; 0.01482
 709.06;17937.630;  193.248;18466.136; 0.01275
 709.63;17879.412;  194.476;18431.916; 0.01336
 710.20;17705.860;  191.037;18446.697; 0.01799
 710.77;17639.642;  187.932;18338.145; 0.01704
 711.35;17736.757;  185.826;18305.592; 0.01385
 711.92;17808.206;  205.721;18271.706; 0.01129
 712.49;17857.987;  207.616;18372.487; 0.01248
 713.06;17815.436;  215.844;18405.934; 0.01433
 713.63;17919.218;  209.405;18498.382; 0.01398
 714.20;17960.333;  212.300;18556.829; 0.01436
 714.78;17927.448;  209.528;18487.277; 0.01351
 715.35;17861.563;  205.756;18407.724; 0.01323
 715.92;17785.678;  207.317;18351.838; 0.01377
 716.49;17805.460;  222.545;18343.285; 0.01309
 717.06;17762.909;  226.106;18273.400; 0.01246
 717.63;17729.357;  217.334;18198.847; 0.01149
 718.20;17664.472;  210.895;18175.294; 0.01253
 718.77;17596.588;  224.790;18170.075; 0.01411
 719.35;17636.369;  226.351;18153.189; 0.01270
 719.92;17533.151;  211.913;18038.303; 0.01248
 720.49;17484.933;  197.474;17879.084; 0.00979
 721.06;17297.382;  177.369;17774.532; 0.01194
 721.63;17274.163;  190.930;17799.979; 0.01317
 722.20;17239.612;  195.825;17861.426; 0.01556
 722.77;17318.727;  203.386;17825.540; 0.01267
 723.34;17302.176;  196.947;17821.321; 0.01298
 723.91;17251.624;  205.509;17813.102; 0.01407
 724.48;17159.406;  222.070;17777.883; 0.01558
 725.05;17124.188;  212.964;17617.997; 0.01250
 725.62;17029.303;  195.192;17490.778; 0.01175
 726.20;16990.418;  186.754;17461.892; 0.01202
 726.77;16981.200;  192.982;17446.339; 0.01187
 727.34;17106.982;  199.210;17412.787; 0.00778
 727.91;17111.430;  209.104;17361.567; 0.00638
 728.48;17055.879;  214.999;17354.015; 0.00762
 729.05;17018.661;  215.560;17353.795; 0.00858
 729.62;16996.776;  192.788;17320.910; 0.00830
 730.19;17025.224;  185.683;17297.024; 0.00695
 730.76;17053.339;  188.578;17324.138; 0.00692
 731.33;17020.121;  211.472;17306.252; 0.00733
 731.90;16924.903;  215.034;17274.033; 0.00898
 732.47;16789.352;  206.261;17242.147; 0.01170
 733.04;16769.133;  191.156;17245.594; 0.01231
 733.61;16774.582;  168.051;17256.042; 0.01241
 734.18;16748.030;  173.945;17191.156; 0.01146
 734.75;16709.812;  184.507;17077.270; 0.00955
 735.32;16606.594;  211.401;16955.384; 0.00914
 735.89;16497.376;  203.963;16851.831; 0.00935
 736.46;16377.491;  212.191;16734.945; 0.00950
 737.03;16405.606;  203.085;16674.393; 0.00715
 737.60;16363.055;  203.647;16580.840; 0.00581
 738.17;16282.170;  173.208;16558.621; 0.00739
 738.74;16126.952;  184.103;16523.735; 0.01068
 739.31;16055.734;  185.331;16430.849; 0.01015
 739.88;15955.849;  195.225;16300.630; 0.00940
 740.45;15905.297;  176.120;16234.411; 0.00899
 741.02;15851.746;  174.348;16293.858; 0.01208
 741.59;15896.861;  171.909;16337.305; 0.01200
 742.15;15889.976;  177.804;16325.753; 0.01188
 742.72;15922.758;  185.365;16376.867; 0.01235
 743.29;15916.206;  187.593;16351.648; 0.01186
 743.86;15959.655;  195.154;16298.095; 0.00922
 744.43;15997.437;  197.049;16220.543; 0.00609
 745.00;16050.552;  201.277;16240.323; 0.00517
 745.57;15978.334;  209.172;16261.771; 0.00774
 746.14;15907.116;  201.733;16198.552; 0.00799
 746.71;15810.231;  208.294;16179.666; 0.01016
 747.28;15839.679;  196.522;16170.446; 0.00909
 747.85;15775.128;  172.417;16124.227; 0.00961
 748.42;15827.243;  173.645;16103.675; 0.00760
 748.98;15807.691;  177.206;16075.455; 0.00738
 749.55;15824.473;  197.767;16011.569; 0.00517
 750.12;15747.255;  197.662;16015.683; 0.00743
 750.69;15693.037;  204.890;15955.131; 0.00729
 751.26;15661.819;  216.118;15910.245; 0.00693
 751.83;15662.601;  206.013;15821.026; 0.00443
 752.40;15627.716;  204.907;15769.807; 0.00398
 752.97;15605.831;  192.802;15780.587; 0.00490
 753.53;15551.613;  195.697;15773.035; 0.00622
 754.10;15558.728;  187.925;15706.815; 0.00416
 754.67;15497.843;  185.486;15666.263; 0.00475
 755.24;15361.625;  192.714;15616.044; 0.00722
 755.81;15284.073;  200.608;15583.491; 0.00854
 756.38;15245.855;  223.503;15510.272; 0.00758
 756.94;15239.637;  215.064;15482.386; 0.00696
 757.51;15130.086;  204.292;15502.833; 0.01071
 758.08;15071.867;  196.520;15545.281; 0.01361
 758.65;15062.316;  213.748;15443.728; 0.01101
 759.22;15006.431;  220.643;15351.176; 0.01001
 759.79;14900.213;  205.538;15180.623; 0.00821
 760.35;14710.995;  191.432;15130.404; 0.01237
 760.92;14610.110;  201.994;14987.518; 0.01123
 761.49;14544.558;  208.555;14849.965; 0.00915
 762.06;14428.674;  211.783;14641.079; 0.00644
 762.63;14344.789;  201.011;14500.527; 0.00476
 763.19;14185.571;  203.239;14469.641; 0.00873
 763.76;14108.352;  215.133;14423.422; 0.00974
 764.33;13973.134;  219.695;14294.202; 0.01002
 764.90;13893.249;  218.589;14107.650; 0.00676
 765.46;13780.031;  197.817;13914.097; 0.00427
 766.03;13618.480;  196.045;13749.878; 0.00423
 766.60;13463.928;  197.940;13624.992; 0.00524
 767.17;13329.043;  205.501;13465.773; 0.00450
 767.73;13250.492;  207.063;13413.220; 0.00538
 768.30;13083.940;  206.624;13205.001; 0.00406
 768.87;12931.389;  215.185;13045.782; 0.00389
 769.44;12720.837;  213.413;12836.229; 0.00399
 770.00;12586.953;  215.975;12686.677; 0.00349
 770.57;12409.068;  216.536;12525.791; 0.00414
 771.14;12187.850;  213.430;12350.238; 0.00585
 771.71;11960.298;  198.325;12122.686; 0.00595
 772.27;11734.413;  206.220;11935.800; 0.00752
 772.84;11552.862;  209.448;11715.914; 0.00620
 773.41;11403.310;  213.676;11595.695; 0.00740
 773.97;11292.759;  205.904;11440.809; 0.00576
 774.54;11187.541;  213.798;11314.923; 0.00501
 775.11;11043.989;  232.360;11227.370; 0.00730
 775.67;10867.771;  228.588;11074.818; 0.00837
 776.24;10761.219;  222.482;10902.265; 0.00577
 776.81;10610.001;  220.377;10665.712; 0.00232
 777.38;10460.116;  208.272;10484.160; 0.00102
 777.94;10269.565;  214.166;10350.941; 0.00350
 778.51;10170.013;  199.728;10214.721; 0.00194
 779.08;10096.795;  210.622;10137.835; 0.00180
 779.64;10015.244;  201.517;10058.283; 0.00190
 780.21; 9917.026;  202.745; 9970.064; 0.00236
 780.78; 9790.474;  211.639; 9870.178; 0.00360
 781.34; 9700.923;  212.534; 9787.625; 0.00395
 781.91; 9574.371;  225.762; 9703.406; 0.00595
 782.47; 9496.486;  227.990; 9633.520; 0.00637
 783.04; 9459.268;  238.551; 9482.634; 0.00110
 783.61; 9408.717;  245.779; 9385.415;-0.00111
 784.17; 9326.498;  246.674; 9320.196;-0.00030
 784.74; 9217.280;  236.569; 9240.310; 0.00111
 785.31; 9172.395;  244.797; 9256.090; 0.00405
 785.87; 9148.511;  248.691; 9137.538;-0.00054
 786.44; 9094.626;  252.252; 9126.319; 0.00155
 787.00; 8990.408;  239.480; 9065.766; 0.00372
 787.57; 8889.189;  222.375; 9005.880; 0.00581
 788.14; 8892.305;  242.936; 8941.661; 0.00247
 788.70; 8864.420;  252.831; 8828.442;-0.00182
 789.27; 8846.868;  261.392; 8880.222; 0.00168
 789.83; 8765.983;  247.620; 8836.003; 0.00356
 790.40; 8728.765;  230.182; 8838.117; 0.00555
 790.96; 8744.547;  235.076; 8799.898; 0.00282
 791.53; 8693.329;  229.304; 8766.679; 0.00375
 792.10; 8698.444;  224.866; 8777.126; 0.00401
 792.66; 8661.893;  219.094; 8720.574; 0.00301
 793.23; 8680.674;  214.988; 8733.688; 0.00271
 793.79; 8654.790;  216.216; 8675.468; 0.00106
 794.36; 8595.238;  210.777; 8660.249; 0.00335
 794.92; 8506.687;  219.339; 8606.363; 0.00519
 795.49; 8431.802;  232.233; 8532.811; 0.00532
 796.05; 8410.584;  243.461; 8505.258; 0.00501
 796.62; 8421.032;  248.023; 8527.372; 0.00561
 797.19; 8398.481;  237.917; 8507.820; 0.00578
 797.75; 8428.262;  226.145; 8453.600; 0.00134
 798.32; 8424.044;  218.373; 8393.714;-0.00161
 798.88; 8435.493;  222.601; 8383.829;-0.00274
 799.45; 8451.608;  224.829; 8436.276;-0.00081
 800.01; 8542.390;  220.391; 8517.723;-0.00129
 800.58; 8718.172;  215.952; 8677.504;-0.00208
 801.14; 8911.287;  222.513; 8916.952; 0.00028
 801.71; 9177.069;  218.074; 9117.399;-0.00290
 802.27; 9444.517;  206.969; 9310.180;-0.00636
 802.84; 9687.299;  188.864; 9480.294;-0.00957
 803.40; 9892.081;  179.758; 9723.075;-0.00762
 803.96;10114.529;  198.986;10006.189;-0.00477
 804.53;10479.644;  210.548;10273.303;-0.00882
 805.09;10827.426;  208.442;10576.417;-0.01039
 805.66;11121.541;  200.670;10926.198;-0.00784
 806.22;11414.657;  172.898;11264.978;-0.00582
 806.79;11779.105;  185.793;11622.426;-0.00591
 807.35;12195.887;  182.354;11886.873;-0.01132
 807.92;12469.002;  214.582;12161.654;-0.01103
 808.48;12730.784;  221.810;12436.768;-0.01033
 809.05;12948.566;  217.705;12708.882;-0.00825
 809.61;13216.348;  213.933;13054.330;-0.00545
 810.17;13514.129;  218.827;13355.110;-0.00523
 810.74;13873.578;  231.055;13671.891;-0.00647
 811.30;14203.693;  226.617;13899.672;-0.00955
 811.87;14470.142;  214.511;14212.453;-0.00792
 812.43;14784.590;  214.406;14571.233;-0.00641
 812.99;15161.039;  216.967;14881.014;-0.00822
 813.56;15580.154;  221.862;15191.462;-0.01113
 814.12;15868.602;  221.090;15523.909;-0.00967
 814.69;16201.717;  216.318;15866.356;-0.00921
 815.25;16474.833;  210.213;16143.804;-0.00893
 815.81;16832.614;  200.774;16302.251;-0.01407
 816.38;17157.730;  196.335;16642.699;-0.01339
 816.94;17410.845;  193.897;16882.479;-0.01354
 817.51;17691.960;  192.791;17283.594;-0.01025
 818.07;17927.075;  201.019;17504.374;-0.01048
 818.63;18183.857;  202.247;17804.155;-0.00927
 819.20;18369.305;  201.808;18033.936;-0.00809
 819.76;18633.421;  209.370;18216.050;-0.00995
 820.32;18883.536;  216.598;18394.831;-0.01152
 820.89;19121.651;  218.159;18583.278;-0.01255
 821.45;19138.766;  193.387;18775.726;-0.00840
 822.01;19223.548;  176.615;18965.173;-0.00593
 822.58;19280.330;  180.843;19065.620;-0.00491
 823.14;19412.778;  194.404;19233.068;-0.00408
 823.70;19550.560;  202.299;19352.182;-0.00448
 824.27;19680.009;  193.194;19462.963;-0.00486
 824.83;19766.457;  215.421;19467.743;-0.00669
 825.39;19776.906;  215.649;19374.524;-0.00903
 825.95;19631.687;  221.211;19316.972;-0.00710
 826.52;19505.136;  191.105;19274.752;-0.00521
 827.08;19177.251;  189.000;19152.200;-0.00057
 827.64;19001.366;  175.895;18949.314;-0.00120
 828.21;18691.481;  175.123;18660.095;-0.00074
 828.77;18441.597;  181.351;18397.542;-0.00105
 829.33;18093.045;  183.579;18029.323;-0.00155
 829.89;17762.494;  181.807;17638.104;-0.00308
 830.46;17446.609;  185.701;17297.218;-0.00378
 831.02;17075.724;  190.596;16895.332;-0.00466
 831.58;16712.172;  201.157;16540.779;-0.00453
 832.15;16269.954;  185.052;16128.893;-0.00383
 832.71;15794.069;  188.280;15811.341; 0.00048
 833.27;15340.185;  178.841;15353.455; 0.00038
 833.83;14906.633;  169.736;14940.569; 0.00100
 834.39;14484.082;  164.297;14394.016;-0.00274
 834.96;13976.197;  162.192;13925.464;-0.00160
 835.52;13560.312;  187.086;13474.578;-0.00279
 836.08;13152.760;  188.981;13047.025;-0.00356
 836.64;12781.542;  194.876;12619.473;-0.00563
 837.21;12408.324;  198.770;12148.920;-0.00933
 837.77;12035.106;  198.332;11759.367;-0.01024
 838.33;11587.221;  206.893;11447.148;-0.00538
 838.89;11107.670;  203.121;11001.596;-0.00425
 839.45;10621.451;  205.349;10589.710;-0.00133
 840.02;10276.233;  209.910;10134.490;-0.00616
 840.58; 9902.348;  201.805; 9836.938;-0.00294
 841.14; 9544.464;  224.699; 9457.052;-0.00409
 841.70; 9097.245;  220.594; 9049.833;-0.00233
 842.26; 8695.361;  218.155; 8613.280;-0.00423
 842.82; 8294.809;  209.050; 8233.061;-0.00333
 843.39; 7883.924;  200.278; 7802.175;-0.00465
 843.95; 7487.706;  213.839; 7446.956;-0.00244
 844.51; 7127.488;  213.734; 7076.737;-0.00320
 845.07; 6860.603;  223.295; 6751.184;-0.00722
 845.63; 6567.052;  228.523; 6447.965;-0.00824
 846.19; 6321.833;  213.418; 6205.745;-0.00833
 846.75; 6123.282;  212.646; 6042.860;-0.00595
 847.32; 5984.064;  191.874; 5828.307;-0.01184
 847.88; 5775.179;  198.435; 5647.088;-0.01009
 848.44; 5536.961;  182.996; 5418.202;-0.00974
 849.00; 5291.076;  188.224; 5206.649;-0.00725
 849.56; 5168.524;  183.119; 5035.763;-0.01172
 850.12; 5049.640;  176.680; 4913.211;-0.01233
 850.68; 4986.421;  181.908; 4877.325;-0.00998
 851.24; 4932.870;  184.136; 4806.439;-0.01172
 851.80; 4919.318;  199.364; 4790.220;-0.01204
 852.37; 4858.100;  196.592; 4731.334;-0.01197
 852.93; 4765.882;  204.820; 4729.448;-0.00348
 853.49; 4712.331;  212.715; 4650.895;-0.00597
 854.05; 4706.446;  223.943; 4597.676;-0.01067
 854.61; 4703.894;  224.171; 4520.790;-0.01812
 855.17; 4648.009;  234.066; 4501.904;-0.01462
 855.73; 4605.791;  222.627; 4484.352;-0.01220
 856.29; 4576.906;  213.855; 4475.132;-0.01025
 856.85; 4596.022;  192.749; 4517.913;-0.00777
 857.41; 4656.803;  203.644; 4600.027;-0.00557
 857.97; 4738.919;  205.205; 4760.141; 0.00203
 858.53; 4860.700;  207.433; 4902.255; 0.00386
 859.09; 5091.149;  192.328; 5028.370;-0.00560
 859.65; 5371.597;  184.889; 5166.484;-0.01752
 860.21; 5659.379;  182.451; 5403.598;-0.02077
 860.77; 5910.494;  179.679; 5685.045;-0.01743
 861.33; 6213.276;  189.573; 6014.826;-0.01455
 861.89; 6559.058;  205.135; 6331.273;-0.01586
 862.45; 6891.173;  215.363; 6656.387;-0.01555
 863.01; 7273.955;  205.924; 6960.168;-0.01972
 863.57; 7641.737;  191.152; 7240.949;-0.02401
 864.13; 7994.519;  180.713; 7598.730;-0.02257
 864.69; 8231.301;  188.608; 7928.510;-0.01667
 865.25; 8549.416;  208.502; 8274.958;-0.01453
 865.81; 8899.531;  215.730; 8598.739;-0.01531
 866.37; 9353.646;  213.625; 8883.853;-0.02292
 866.93; 9641.428;  200.853; 9198.967;-0.02085
 867.49; 9998.543;  216.081; 9536.081;-0.02103
 868.05;10275.658;  210.642; 9849.195;-0.01880
 868.61;10616.107;  206.870;10116.309;-0.02137
 869.17;10843.222;  185.765;10306.090;-0.02246
 869.73;11129.004;  202.660;10652.537;-0.01936
 870.29;11466.786;  209.554;10985.985;-0.01896
 870.85;11800.901;  212.115;11316.099;-0.01856
 871.41;12170.016;  192.010;11700.213;-0.01738
 871.97;12545.131;  179.571;12032.994;-0.01837
 872.53;12922.580;  184.799;12414.108;-0.01769
 873.09;13300.028;  192.361;12748.222;-0.01868
 873.65;13649.810;  202.922;13125.336;-0.01728
 874.20;14084.592;  204.150;13530.783;-0.01768
 874.76;14466.925;  206.483;13844.450;-0.01938
 875.32;14878.925;  199.150;14344.450;-0.01611
 875.88;15290.925;  204.817;14722.117;-0.01669
 876.44;15628.925;  218.150;15059.450;-0.01635
 877.00;15940.258;  218.150;15358.117;-0.01639
 877.56;16231.925;  215.483;15696.450;-0.01477
 878.12;16587.925;  204.483;16104.450;-0.01301
 878.68;16922.592;  211.817;16344.450;-0.01529
 879.23;17135.592;  207.150;16637.783;-0.01296
 879.79;17383.258;  220.483;16875.783;-0.01304
 880.35;17631.592;  205.150;17127.117;-0.01276
 880.91;17919.592;  192.150;17367.783;-0.01373
 881.47;18182.258;  175.817;17611.783;-0.01398
 882.03;18454.258;  191.483;17929.783;-0.01265
 882.59;18741.592;  204.150;18199.450;-0.01289
 883.14;18935.258;  217.150;18423.117;-0.01205
 883.70;19072.592;  220.150;18492.117;-0.01358
 884.26;19151.925;  217.483;18606.117;-0.01270
 884.82;19113.925;  200.150;18627.783;-0.01131
 885.38;19088.925;  184.483;18693.783;-0.00917
 885.94;19120.258;  186.817;18692.783;-0.00992
 886.49;19265.592;  200.150;18759.783;-0.01168
 887.05;19313.925;  192.817;18819.450;-0.01138
 887.61;19220.925;  182.817;18766.450;-0.01049
 888.17;19116.925;  175.817;18655.450;-0.01071
 888.73;18911.925;  189.483;18492.450;-0.00984
 889.28;18780.592;  190.150;18251.117;-0.01255
 889.84;18515.592;  191.817;18020.450;-0.01190
 890.40;18366.925;  194.817;17792.450;-0.01395
 890.96;18196.925;  199.483;17628.450;-0.01394
 891.51;18080.258;  189.483;17470.117;-0.01507
 892.07;17895.925;  183.817;17244.117;-0.01628
 892.63;17721.592;  190.483;17036.783;-0.01730
 893.19;17484.592;  200.817;16880.117;-0.01546
 893.74;17351.592;  215.150;16772.783;-0.01492
 894.30;17131.258;  206.150;16671.450;-0.01196
 894.86;16947.925;  185.150;16510.450;-0.01148
 895.42;16854.258;  176.483;16397.450;-0.01206
 895.97;16808.925;  175.150;16362.450;-0.01182
 896.53;16826.258;  203.817;16299.450;-0.01399
 897.09;16744.592;  212.817;16258.117;-0.01297
 897.65;16644.258;  225.483;16079.783;-0.01519
 898.20;16581.592;  228.483;15994.117;-0.01589
 898.76;16498.258;  215.150;15888.117;-0.01659
 899.32;16426.925;  215.483;15824.450;-0.01645
 899.87;16327.258;  206.483;15765.117;-0.01541
 900.43;16179.258;  206.150;15631.783;-0.01515
 900.99;15977.258;  194.483;15508.450;-0.01310
 901.54;15822.258;  181.150;15319.450;-0.01419
 902.10;15627.925;  193.150;15133.117;-0.01415
 902.66;15438.258;  208.483;14918.117;-0.01509
 903.21;15260.925;  221.817;14754.117;-0.01489
 903.77;15119.925;  229.483;14588.450;-0.01578
 904.33;15037.592;  209.483;14443.783;-0.01775
 904.88;14921.258;  198.150;14329.783;-0.01781
 905.44;14824.258;  177.150;14293.450;-0.01603
 906.00;14732.258;  191.150;14324.117;-0.01236
 906.55;14658.925;  207.483;14294.117;-0.01110
 907.11;14595.925;  214.150;14239.117;-0.01091
 907.67;14465.258;  205.817;14016.117;-0.01390
 908.22;14315.592;  196.150;13855.783;-0.01438
 908.78;14138.925;  187.817;13715.783;-0.01338
 909.33;14103.592;  195.483;13616.783;-0.01547
 909.89;14027.258;  192.150;13488.783;-0.01724
 910.45;14029.925;  201.150;13406.783;-0.02002
 911.00;13851.592;  191.483;13362.117;-0.01585
 911.56;13743.258;  203.817;13272.117;-0.01538
 912.12;13579.592;  208.483;13101.117;-0.01583
 912.67;13469.592;  221.483;12951.117;-0.01734
 913.23;13241.592;  194.150;12807.450;-0.01470
 913.78;13033.592;  178.483;12651.783;-0.01309
 914.34;12968.592;  201.483;12642.117;-0.01125
 914.89;12957.592;  216.483;12543.117;-0.01436
 915.45;12910.592;  227.150;12558.117;-0.01224
 916.01;12787.258;  195.483;12386.117;-0.01406
 916.56;12601.925;  201.483;12282.450;-0.01134
 917.12;12530.925;  196.817;12063.117;-0.01679
 917.67;12427.592;  195.483;11981.117;-0.01615
 918.23;12421.925;  182.817;11944.450;-0.01728
 918.78;12310.258;  186.483;11927.117;-0.01395
 919.34;12180.925;  188.817;11843.783;-0.01238
 919.89;12019.592;  199.150;11694.117;-0.01213
 920.45;11887.925;  185.817;11531.783;-0.01342
 921.00;11752.258;  168.817;11330.783;-0.01610
 921.56;11602.258;  176.150;11296.783;-0.01177
 922.11;11450.925;  175.150;11154.450;-0.01157
 922.67;11360.925;  202.483;11048.450;-0.01234
 923.22;11229.258;  191.150;10815.450;-0.01659
 923.78;11031.258;  202.817;10632.117;-0.01631
 924.33;10815.592;  195.817;10497.117;-0.01322
 924.89;10700.592;  196.483;10361.117;-0.01427
 925.44;10592.258;  204.817;10248.117;-0.01463
 926.00;10521.258;  201.150;10018.783;-0.02168
 926.55;10404.925;  205.150; 9867.117;-0.02353
 927.11;10263.258;  188.150; 9720.450;-0.02405
 927.66;10108.925;  177.817; 9717.117;-0.01748
 928.22; 9986.592;  174.483; 9670.783;-0.01421
 928.77; 9984.258;  190.150; 9636.117;-0.01572
 929.33; 9952.925;  204.150; 9587.783;-0.01658
 929.88; 9902.258;  205.150; 9516.450;-0.01763
 930.43; 9854.592;  182.483; 9493.450;-0.01653
 930.99; 9858.592;  174.817; 9470.117;-0.01778
 931.54; 9929.925;  167.150; 9456.783;-0.02157
 932.10; 9917.592;  190.150; 9473.117;-0.02031
 932.65; 9920.925;  197.150; 9480.117;-0.02015
 933.21; 9893.925;  198.483; 9496.450;-0.01818
 933.76; 9898.592;  187.483; 9472.117;-0.01950
 934.31; 9870.925;  183.150; 9454.117;-0.01910
 934.87; 9883.925;  190.150; 9433.783;-0.02065
 935.42; 9871.592;  199.483; 9431.450;-0.02023
 935.98; 9831.592;  195.483; 9388.450;-0.02045
 936.53; 9788.592;  193.817; 9335.450;-0.02101
 937.08; 9777.925;  191.150; 9347.783;-0.01994
 937.64; 9725.592;  197.817; 9356.783;-0.01715
 938.19; 9589.592;  196.483; 9425.117;-0.00767
 938.74; 9571.592;  199.817; 9340.117;-0.01086
 939.30; 9572.258;  187.150; 9339.783;-0.01089
 939.85; 9590.925;  186.483; 9209.783;-0.01797
 940.40; 9552.258;  173.817; 9251.783;-0.01414
 940.96; 9544.258;  187.150; 9238.450;-0.01443
 941.51; 9525.925;  189.483; 9244.783;-0.01328
 942.06; 9491.592;  197.150; 9160.450;-0.01576
 942.62; 9469.592;  184.817; 9036.783;-0.02073
 943.17; 9422.258;  195.150; 8966.450;-0.02200
 943.72; 9297.592;  180.483; 8903.117;-0.01921
 944.28; 9168.258;  199.483; 8795.117;-0.01846
 944.83; 9143.592;  184.150; 8766.783;-0.01866
 945.38; 9147.925;  194.483; 8735.117;-0.02050
 945.94; 9184.258;  186.483; 8804.450;-0.01873
 946.49; 9092.592;  205.150; 8772.783;-0.01592
 947.04; 9041.258;  208.817; 8738.117;-0.01517
 947.60; 8920.258;  215.150; 8638.117;-0.01431
 948.15; 8861.925;  203.483; 8519.117;-0.01754
 948.70; 8745.258;  212.817; 8413.783;-0.01721
 949.25; 8677.592;  206.150; 8325.117;-0.01846
 949.81; 8542.592;  208.817; 8271.117;-0.01438
 950.36; 8389.592;  198.483; 8157.117;-0.01250
 950.91; 8215.592;  207.150; 8037.783;-0.00975
 951.46; 8092.592;  203.817; 7873.117;-0.01225
 952.02; 8005.925;  207.150; 7734.117;-0.01541
 952.57; 7891.925;  207.150; 7606.450;-0.01644
 953.12; 7767.258;  218.483; 7526.117;-0.01410
 953.67; 7660.258;  218.150; 7443.783;-0.01282
 954.23; 7554.592;  215.817; 7359.450;-0.01170
 954.78; 7452.592;  208.150; 7234.450;-0.01328
 955.33; 7297.592;  218.150; 7119.783;-0.01105
 955.88; 7175.925;  217.150; 6980.117;-0.01240
 956.44; 7099.258;  230.483; 6838.450;-0.01681
 956.99; 7019.258;  228.817; 6737.117;-0.01843
 957.54; 6984.258;  223.817; 6672.783;-0.02048
 958.09; 6934.592;  222.150; 6636.783;-0.01971
 958.64; 6890.258;  206.817; 6607.450;-0.01878
 959.20; 6789.258;  203.483; 6532.450;-0.01727
 959.75; 6675.258;  199.817; 6496.450;-0.01216
 960.30; 6690.592;  218.150; 6441.783;-0.01702
 960.85; 6721.258;  225.150; 6424.450;-0.02031
 961.40; 6736.592;  228.817; 6381.117;-0.02440
 961.95; 6709.925;  231.817; 6360.783;-0.02406
 962.51; 6632.925;  239.483; 6360.117;-0.01894
 963.06; 6647.258;  242.817; 6380.117;-0.01850
 963.61; 6639.925;  234.150; 6314.783;-0.02262
 964.16; 6674.925;  235.150; 6258.450;-0.02904
 964.71; 6682.925;  222.483; 6212.117;-0.03286
 965.26; 6673.925;  213.150; 6253.117;-0.02925
 965.81; 6684.258;  210.817; 6289.117;-0.02735
 966.36; 6656.592;  208.483; 6323.783;-0.02301
 966.92; 6649.925;  216.150; 6305.117;-0.02392
 967.47; 6625.258;  218.483; 6338.117;-0.01991
 968.02; 6657.925;  232.483; 6354.117;-0.02104
 968.57; 6716.592;  234.817; 6375.450;-0.02348
 969.12; 6762.925;  219.817; 6368.783;-0.02698
 969.67; 6780.925;  204.483; 6420.783;-0.02446
 970.22; 6798.592;  194.150; 6469.783;-0.02218
 970.77; 6915.592;  199.817; 6539.117;-0.02505
 971.32; 7015.592;  197.483; 6593.117;-0.02778
 971.87; 7087.258;  198.817; 6693.117;-0.02559
 972.42; 7168.258;  215.150; 6793.117;-0.02409
 972.98; 7211.258;  220.817; 6908.783;-0.01921
 973.53; 7276.592;  231.483; 6996.117;-0.01764
 974.08; 7302.592;  215.483; 7040.450;-0.01637
 974.63; 7394.925;  223.483; 7078.450;-0.01960
 975.18; 7467.925;  218.483; 7103.117;-0.02242
 975.73; 7559.258;  224.817; 7157.450;-0.02447
 976.28; 7623.925;  221.483; 7219.117;-0.02442
 976.83; 7659.592;  221.483; 7315.450;-0.02057
 977.38; 7687.925;  219.483; 7373.783;-0.01866
 977.93; 7655.925;  222.150; 7387.450;-0.01598
 978.48; 7678.925;  228.483; 7365.783;-0.01865
 979.03; 7677.925;  234.817; 7358.117;-0.01907
 979.58; 7697.592;  221.483; 7329.117;-0.02195
 980.13; 7680.592;  207.150; 7367.783;-0.01857
 980.68; 7621.925;  186.483; 7310.450;-0.01858
 981.23; 7596.258;  185.817; 7278.117;-0.01906
 981.78; 7590.925;  207.150; 7207.450;-0.02316
 982.33; 7548.592;  219.150; 7257.117;-0.01762
 982.88; 7507.925;  232.483; 7211.783;-0.01805
 983.43; 7439.258;  218.150; 7145.783;-0.01802
 983.98; 7364.592;  215.150; 6984.117;-0.02375
 984.53; 7291.925;  203.817; 6873.450;-0.02643
 985.08; 7246.258;  209.817; 6835.783;-0.02610
 985.63; 7197.925;  211.150; 6787.117;-0.02632
 986.18; 7127.592;  218.817; 6756.783;-0.02396
 986.73; 7016.258;  218.483; 6610.450;-0.02673
 987.27; 6922.592;  227.483; 6521.117;-0.02686
 987.82; 6823.925;  238.483; 6431.783;-0.02666
 988.37; 6717.592;  243.150; 6400.783;-0.02179
 988.92; 6652.925;  234.150; 6351.117;-0.02092
 989.47; 6591.258;  214.483; 6285.117;-0.02137
 990.02; 6515.925;  208.483; 6199.117;-0.02238
 990.57; 6423.925;  208.150; 6083.117;-0.02449
 991.12; 6361.925;  215.150; 6044.450;-0.02303
 991.67; 6282.258;  213.817; 5969.117;-0.02301
 992.22; 6189.592;  200.483; 5915.450;-0.02035
 992.77; 6036.592;  200.150; 5802.450;-0.01778
 993.31; 5909.258;  204.817; 5735.783;-0.01341
 993.86; 5840.258;  230.483; 5683.783;-0.01229
 994.41; 5791.258;  235.150; 5580.117;-0.01683
 994.96; 5689.592;  226.483; 5473.117;-0.01756
 995.51; 5586.258;  218.817; 5377.783;-0.01720
 996.06; 5437.925;  208.483; 5293.783;-0.01214
 996.61; 5381.925;  222.483; 5201.783;-0.01543
 997.15; 5290.258;  236.150; 5083.450;-0.01814
 997.70; 5194.592;  241.150; 4965.117;-0.02060
 998.25; 5085.592;  247.483; 4873.450;-0.01947
 998.80; 4917.258;  248.483; 4740.117;-0.01680
 999.35; 4799.258;  249.483; 4623.450;-0.01711
 999.90; 4604.925;  236.150; 4455.117;-0.01515
1000.44; 4490.592;  224.483; 4340.450;-0.01556
1000.99; 4334.258;  232.483; 4190.783;-0.01546
1001.54; 4260.592;  237.150; 4067.450;-0.02136
1002.09; 4104.258;  231.817; 3939.117;-0.01893
1002.64; 4015.592;  238.483; 3855.450;-0.01881
1003.18; 3889.925;  240.483; 3766.783;-0.01491
1003.73; 3842.925;  238.483; 3661.450;-0.02244
1004.28; 3758.258;  226.817; 3584.450;-0.02192
1004.83; 3669.258;  209.483; 3488.117;-0.02336
1005.38; 3564.258;  210.150; 3420.783;-0.01899
1005.92; 3513.925;  219.150; 3321.783;-0.02610
1006.47; 3430.592;  236.817; 3231.783;-0.02791
1007.02; 3371.592;  235.483; 3140.117;-0.03330
1007.57; 3232.592;  222.817; 3087.450;-0.02146
1008.11; 3188.592;  211.817; 3028.450;-0.02402
1008.66; 3110.925;  205.150; 2973.450;-0.02105
1009.21; 3071.925;  192.483; 2907.783;-0.02549
1009.75; 2987.925;  177.817; 2862.117;-0.01989
1010.30; 2890.925;  170.150; 2793.117;-0.01590
1010.85; 2773.592;  176.817; 2712.783;-0.01029
1011.40; 2716.592;  204.150; 2628.450;-0.01551
1011.94; 2643.925;  221.817; 2545.783;-0.01796
1012.49; 2611.925;  216.483; 2464.450;-0.02760
1013.04; 2504.925;  194.150; 2362.117;-0.02771
1013.58; 2459.592;  184.150; 2325.117;-0.02646
1014.13; 2354.258;  188.483; 2268.117;-0.01763
1014.68; 2309.258;  196.483; 2233.450;-0.01587
1015.23; 2249.925;  203.150; 2181.450;-0.01478
1015.77; 2230.592;  199.817; 2113.117;-0.02588
1016.32; 2191.925;  204.817; 2072.450;-0.02693
1016.87; 2119.925;  209.483; 2012.783;-0.02507
1017.41; 2070.592;  206.817; 1977.450;-0.02226
1017.96; 2014.258;  194.817; 1953.450;-0.01476
1018.50; 1986.592;  186.483; 1926.450;-0.01476
1019.05; 1931.925;  188.483; 1903.450;-0.00715
1019.60; 1890.592;  182.817; 1815.783;-0.01945
1020.14; 1839.258;  196.150; 1752.783;-0.02348
1020.69; 1801.258;  196.150; 1698.117;-0.02884
1021.24; 1744.592;  209.483; 1650.450;-0.02749
1021.78; 1676.592;  188.483; 1620.450;-0.01670
1022.33; 1629.925;  190.150; 1592.450;-0.01145
1022.87; 1587.592;  182.817; 1587.783; 0.00006
1023.42; 1576.592;  198.150; 1567.117;-0.00300
1023.97; 1526.258;  200.150; 1516.117;-0.00333
1024.51; 1483.592;  212.150; 1465.117;-0.00636
1025.06; 1439.592;  200.483; 1401.117;-0.01370
1025.60; 1417.592;  198.817; 1340.783;-0.02827
1026.15; 1404.258;  181.150; 1307.783;-0.03568
1026.70; 1374.925;  185.483; 1284.783;-0.03423
1027.24; 1350.258;  195.483; 1279.783;-0.02735
1027.79; 1301.592;  200.483; 1270.450;-0.01246
1028.33; 1268.592;  197.483; 1252.450;-0.00659
1028.88; 1230.592;  188.817; 1215.450;-0.00636
1029.42; 1233.925;  208.150; 1198.450;-0.01529
1029.97; 1185.592;  197.817; 1156.450;-0.01301
1030.51; 1175.925;  190.150; 1127.117;-0.02205
1031.06; 1143.925;  182.817; 1088.783;-0.02566
1031.61; 1156.258;  192.483; 1063.117;-0.04414
1032.15; 1142.592;  210.150; 1050.450;-0.04519
1032.70; 1116.592;  202.817; 1024.117;-0.04634
1033.24; 1073.258;  206.483; 1018.117;-0.02855
1033.79; 1064.592;  200.817; 1020.450;-0.02278
1034.33; 1050.592;  199.817; 1016.450;-0.01779
1034.88; 1061.592;  201.817; 1008.783;-0.02753
1035.42; 1022.592;  202.817;  979.450;-0.02348
1035.97;  999.592;  204.483;  950.450;-0.02771
1036.51;  983.925;  206.483;  931.450;-0.03035
1037.06;  982.925;  200.817;  944.117;-0.02210
1037.60;  986.592;  207.150;  948.783;-0.02159
1038.14;  971.925;  204.150;  928.783;-0.02512
1038.69;  961.258;  222.150;  927.783;-0.02013
1039.23;  954.592;  234.483;  935.783;-0.01149
1039.78;  960.592;  235.150;  948.783;-0.00713
1040.32;  949.592;  224.483;  915.783;-0.02074
1040.87;  930.925;  208.483;  887.117;-0.02717
1041.41;  898.925;  198.150;  864.117;-0.02213
1041.96;  892.258;  200.817;  882.783;-0.00599
1042.50;  899.258;  197.817;  893.117;-0.00382
1043.04;  903.925;  213.817;  899.117;-0.00304
1043.59;  903.925;  217.150;  867.450;-0.02370
1044.13;  887.258;  212.483;  869.450;-0.01162
1044.68;  881.258;  205.817;  862.117;-0.01249
1045.22;  870.258;  199.150;  873.783; 0.00228
1045.76;  857.258;  201.817;  869.450; 0.00800
1046.31;  867.925;  193.483;  861.783;-0.00397
1046.85;  867.592;  200.483;  842.117;-0.01691
1047.40;  875.925;  202.483;  813.783;-0.04205
1047.94;  860.258;  215.150;  808.783;-0.03611
1048.48;  855.592;  211.150;  810.117;-0.03178
1049.03;  855.592;  214.483;  793.450;-0.04428
1049.57;  861.592;  229.150;  787.117;-0.05441
1050.11;  843.258;  222.817;  774.117;-0.05131
1050.66;  816.925;  218.483;  779.117;-0.02834
1051.20;  787.258;  206.483;  794.450; 0.00534
1051.74;  779.925;  200.817;  788.117; 0.00610
1052.29;  768.925;  200.150;  780.783; 0.00896
1052.83;  760.925;  199.150;  748.117;-0.01002
1053.37;  788.258;  224.817;  744.783;-0.03487
1053.92;  801.925;  234.150;  739.783;-0.05034
1054.46;  803.592;  236.483;  734.117;-0.05676
1055.00;  792.258;  231.483;  739.117;-0.04324
1055.55;  770.925;  230.817;  738.117;-0.02722
1056.09;  751.258;  223.817;  747.783;-0.00287
1056.63;  711.258;  215.817;  711.783; 0.00046
1057.17;  715.592;  216.483;  709.117;-0.00567
1057.72;  714.592;  225.150;  697.450;-0.01548
1058.26;  713.925;  223.483;  705.783;-0.00727
1058.80;  690.592;  229.817;  700.450; 0.00919
1059.35;  681.925;  230.483;  686.450; 0.00433
1059.89;  676.925;  230.150;  672.450;-0.00437
1060.43;  675.258;  227.817;  654.783;-0.02034
1060.97;  666.925;  223.817;  667.117; 0.00019
1061.52;  679.258;  231.150;  682.450; 0.00308
1062.06;  670.258;  231.483;  671.450; 0.00118
1062.60;  668.592;  236.483;  658.450;-0.01031
1063.14;  650.925;  232.483;  640.783;-0.01066
1063.69;  649.258;  216.483;  640.117;-0.00927
1064.23;  657.258;  208.817;  619.783;-0.03790
1064.77;  642.258;  200.483;  598.450;-0.04535
1065.31;  630.258;  201.817;  577.450;-0.05713
1065.85;  607.592;  206.483;  567.117;-0.04620
1066.40;  610.592;  205.150;  579.450;-0.03471
1066.94;  613.258;  217.817;  579.117;-0.03921
1067.48;  614.925;  209.150;  587.783;-0.03007
1068.02;  607.592;  233.817;  562.450;-0.05590
1068.56;  604.258;  216.817;  564.783;-0.04667
1069.10;  585.925;  212.817;  549.783;-0.04425
1069.65;  574.592;  195.817;  566.450;-0.00944
1070.19;  571.258;  208.817;  566.783;-0.00540
1070.73;  584.925;  223.817;  582.783;-0.00258
1071.27;  558.592;  215.817;  567.117; 0.01067
1071.81;  550.258;  207.150;  562.117; 0.01476
1072.35;  545.925;  201.817;  549.117; 0.00401
1072.90;  560.258;  197.150;  546.783;-0.01642
1073.44;  552.925;  202.817;  540.117;-0.01619
1073.98;  538.258;  206.150;  531.450;-0.00900
1074.52;  537.592;  224.483;  538.783; 0.00165
1075.06;  530.925;  218.483;  542.450; 0.01573
1075.60;  518.925;  207.483;  531.450; 0.01712
1076.14;  512.592;  204.817;  514.117; 0.00215
1076.68;  510.592;  207.150;  504.450;-0.00888
1077.22;  520.925;  225.817;  504.783;-0.02443
1077.76;  511.592;  214.817;  498.117;-0.02018
1078.31;  514.258;  229.817;  499.783;-0.02268
1078.85;  523.592;  226.483;  517.117;-0.00957
1079.39;  536.592;  243.817;  525.450;-0.01685
1079.93;  528.925;  237.817;  507.783;-0.03274
1080.47;  509.592;  227.483;  476.450;-0.05427
1081.01;  500.925;  216.150;  474.783;-0.04182
1081.55;  507.592;  208.483;  488.783;-0.02821
1082.09;  506.258;  205.817;  488.783;-0.02602
1082.63;  509.592;  210.150;  496.450;-0.01949
1083.17;  515.258;  221.150;  500.783;-0.02192
1083.71;  504.925;  228.817;  501.450;-0.00550
1084.25;  500.925;  224.483;  471.117;-0.04955
1084.79;  475.592;  214.483;  446.450;-0.05140
1085.33;  475.258;  202.817;  450.783;-0.04088
1085.87;  468.925;  199.483;  468.450;-0.00077
1086.41;  476.592;  214.483;  471.450;-0.00860
1086.95;  471.925;  222.150;  467.117;-0.00844
1087.49;  477.258;  225.817;  454.783;-0.04066
1088.03;  472.258;  216.817;  454.117;-0.03199
1088.57;  472.925;  219.817;  450.783;-0.03976
1089.11;  469.258;  222.150;  448.117;-0.03884
1089.65;  474.925;  233.150;  458.783;-0.03001
1090.19;  478.258;  238.483;  468.117;-0.01877
1090.73;  477.925;  240.483;  471.783;-0.01138
1091.27;  456.258;  238.817;  466.117; 0.01926
1091.81;  449.258;  238.483;  458.117; 0.01788
1092.35;  445.925;  247.483;  461.450; 0.03271
1092.89;  465.592;  232.150;  457.450;-0.01542
1093.43;  475.258;  223.817;  445.783;-0.05415
1093.97;  470.592;  210.150;  441.117;-0.05216
1094.51;  461.258;  208.483;  440.450;-0.03731
1095.04;  449.592;  218.483;  442.783;-0.01299
1095.58;  448.592;  238.817;  436.783;-0.02516
1096.12;  443.925;  242.817;  428.783;-0.03399
1096.66;  452.925;  239.817;  430.450;-0.04840
1097.20;  443.592;  235.817;  449.450; 0.01208
1097.74;  448.592;  246.817;  456.783; 0.01728
1098.28;  430.258;  235.817;  457.117; 0.05619
1098.82;  434.592;  230.483;  453.117; 0.03773
1099.36;  436.258;  228.150;  446.450; 0.02076
1099.89;  434.925;  230.150;  447.450; 0.02578

